 10:15:37.,-0.514062,-0.529858,-0.493592,-0.524378,-0.525829,-0.519381,-0.533404,-0.476345,-0.480536,-0.496493,-0.514546,-0.482793,-0.498428,-0.494720,-0.545977,-0.507454,-0.527279,-0.521960,-0.497783,-0.529858,-0.547105,-0.496655,-0.520671,-0.542431,-0.549039,-0.497622,-0.500684,-0.545171,-0.510839,-0.502941,-0.535500,-0.539691,-0.513257,-0.497461,-0.515030,-0.532115,-0.550329,-0.512289,-0.503424,-0.517608,-0.501329,-0.485694,-0.531470,-0.527441,-0.493914,-0.489401,-0.554358,-0.496010,-0.550329,-0.545977,-0.523733,-0.497138,-0.493109,-0.507293,-0.549200,-0.532115,-0.509066,-0.557421,-0.486339,-0.528891,-0.497783,-0.530987,-0.537273,-0.536306,-0.527602,-0.507937,-0.498266,-0.500201,-0.521155,-0.555970,-0.522605,-0.557260,-0.539207,-0.493753,-0.502296,-0.515674,-0.495365,-0.528247,-0.486178,-0.535661,-0.540497,-0.489079,-0.488273,-0.493270,-0.524378,-0.511967,-0.527441,-0.457971,-0.462161,-0.451684,-0.484405,-0.504391,-0.444109,-0.450717,-0.493109,-0.422833,-0.438951,-0.447494,-0.415579,-0.414129,-0.418964,-0.434115,-0.399461,-0.391402,-0.385438,-0.377379,-0.371576,-0.394142,-0.377056,-0.406714,-0.367869,-0.400428,-0.409938,-0.475701,-0.468447,-0.534694,-0.575151,-0.577891,-0.655420,-0.632210,-0.667993,-0.670894,-0.683628,-0.687980,-0.694266,-0.700552,-0.691687,-0.681210,-0.745200,-0.699585,-0.716993,-0.720377,-0.727792,-0.704581,-0.708450,-0.731016,-0.725697,-0.659450,-0.673957,-0.681532,-0.604970,-0.576440,-0.593204,-0.550006,-0.524539,-0.566608,-0.535177,-0.525023,-0.533404,-0.489079,-0.508421,-0.499556,-0.544204,-0.485211,-0.496332,-0.523572,-0.484888,-0.505842,-0.461355,-0.465385,-0.470865,-0.464257,-0.467319,-0.466836,-0.475862,-0.470704,-0.493109,-0.516803,-0.482954,-0.463451,-0.469898,-0.471994,-0.462806,-0.466352,-0.505842,-0.468609,-0.503424,-0.489079,-0.477957,-0.467319,-0.456520,-0.464579,-0.506003,-0.452329,-0.453296,-0.466352,-0.460227,-0.454908,-0.458938,-0.450073,-0.507454,-0.442497,-0.442497,-0.457809,-0.467803,-0.496010,-0.494398,-0.463773,-0.499878,-0.468286,-0.494398,-0.455392,-0.461678,-0.445076,-0.497622,-0.466513,-0.439596,-0.493431,-0.448944,-0.483438,-0.453780,-0.478118,-0.456036,-0.447494,-0.444592,-0.461517,-0.498750,-0.463934,-0.460549,-0.456842,-0.489724,-0.459260,-0.499556,-0.481181,-0.445237,-0.432987,-0.472477,-0.449589,-0.452007,-0.463612,-0.469092,-0.482954,-0.497783,-0.446527,-0.445882,-0.482632,-0.442175,-0.439918,-0.495365,-0.447010,-0.449267,-0.446043,-0.475540,-0.487467,-0.444270,-0.431536,-0.453780,-0.450717,-0.478118,-0.436856,-0.444431,-0.498589,-0.455392,-0.485533,-0.452490,-0.439434,-0.436211,-0.433309,-0.462161,-0.476345,-0.436050,-0.466674,-0.463290,-0.485694,-0.433954,-0.445237,-0.435727,-0.452007,-0.492625,-0.472155,-0.474572,-0.488434,-0.483599,-0.433632,-0.481665,-0.421060,-0.428474,-0.432665,-0.431859,-0.444270,-0.432987,-0.481987,-0.476507,-0.473767,-0.474089,-0.438306,-0.472155,-0.430892,-0.464418,-0.484566,-0.429925,-0.482632,-0.422671,-0.476184,-0.460872,-0.423800,-0.436372,-0.419931,-0.423800,-0.432181,-0.425734,-0.442013,-0.426701,-0.420092,-0.419448,-0.456359,-0.413162,-0.450395,-0.420737,-0.418803,-0.413000,-0.417675,-0.448944,-0.425573,-0.415096,-0.431859,-0.461517,-0.465385,-0.420898,-0.420092,-0.418803,-0.448783,-0.416385,-0.453619,-0.422349,-0.420576,-0.411711,-0.459099,-0.435566,-0.467319,-0.424283,-0.425250,-0.411066,-0.420415,-0.416869,-0.434599,-0.445398,-0.423961,-0.453457,-0.421543,-0.428796,-0.426862,-0.455230,-0.421382,-0.467964,-0.422188,-0.420898,-0.472477,-0.474411,-0.483438,-0.450878,-0.470704,-0.470704,-0.427990,-0.437984,-0.439434,-0.500362,-0.480536,-0.449267,-0.487951,-0.441530,-0.493592,-0.477151,-0.452490,-0.501329,-0.503263,-0.458776,-0.502296,-0.487951,-0.457487,-0.472155,-0.515674,-0.473928,-0.489563,-0.509388,-0.472961,-0.479730,-0.480697,-0.483438,-0.486822,-0.526957,-0.544043,-0.493431,-0.502941,-0.493431,-0.508260,-0.506809,-0.495688,-0.494559,-0.499556,-0.500039,-0.540497,-0.547589,-0.489724,-0.501007,-0.512289,-0.493592,-0.513579,-0.560483,-0.522766,-0.513740,-0.514062,-0.509710,-0.552102,-0.545171,-0.569832,-0.516158,-0.514868,-0.518737,-0.547105,-0.499234,-0.528891,-0.519381,-0.519220,-0.560967,-0.518414,-0.555164,-0.513740,-0.564835,-0.523572,-0.573378,-0.542753,-0.550168,-0.521155,-0.550973,-0.521799,-0.513579,-0.510033,-0.514062,-0.516480,-0.520510,-0.552908,-0.510194,-0.541786,-0.507293,-0.519865,-0.513095,-0.523733,-0.524862,-0.511322,-0.521155,-0.495204,-0.508421,-0.552585,-0.488434,-0.505197,-0.520510,-0.508905,-0.516964,-0.549362,-0.505520,-0.556454,-0.559355,-0.507776,-0.511161,-0.523895,-0.509066,-0.561773,-0.491819,-0.541302,-0.504230,-0.483760,-0.537756,-0.497944,-0.502457,-0.500523,-0.508582,-0.506487,-0.553069,-0.508905,-0.540658,-0.516480,-0.498266,-0.525184,-0.505036,-0.475378,-0.536628,-0.504069,-0.470059,-0.496977,-0.535500,-0.493914,-0.551296,-0.544043,-0.506970,-0.543075,-0.504069,-0.499556,-0.506326,-0.524862,-0.533404,-0.538885,-0.516158,-0.489079,-0.486661,-0.472316,-0.493592,-0.525990,-0.532921,-0.511483,-0.524217,-0.535983,-0.500684,-0.523250,-0.504553,-0.530181,-0.491336,-0.531631,-0.497783,-0.519865,-0.478280,-0.484888,-0.478924,-0.496171,-0.534049,-0.487951,-0.504069,-0.543237,-0.507132,-0.494720,-0.518092,-0.501974,-0.490852,-0.493914,-0.488434,-0.514868,-0.479892,-0.537756,-0.481665,-0.497944,-0.541786,-0.503263,-0.546783,-0.502296,-0.520993,-0.502618,-0.540013,-0.481020,-0.499234,-0.490368,-0.485211,-0.495526,-0.490852,-0.486822,-0.519543,-0.469576,-0.491336,-0.497622,-0.487790,-0.505359,-0.496493,-0.547589,-0.542753,-0.489885,-0.537595,-0.551296,-0.528891,-0.515030,-0.501168,-0.479408,-0.483760,-0.494398,-0.545493,-0.507776,-0.496977,-0.487145,-0.509710,-0.498911,-0.502457,-0.537595,-0.527118,-0.524056,-0.500362,-0.534694,-0.483760,-0.486016,-0.531309,-0.495043,-0.509872,-0.506326,-0.496493,-0.537918,-0.491497,-0.511000,-0.496171,-0.541786,-0.494398,-0.539046,-0.502457,-0.500684,-0.500362,-0.552263,-0.507454,-0.483760,-0.545332,-0.518898,-0.491497,-0.494559,-0.540013,-0.495043,-0.499234,-0.502618,-0.551296,-0.503263,-0.493914,-0.558871,-0.533404,-0.540658,-0.524378,-0.515674,-0.498428,-0.536789,-0.530503,-0.543075,-0.507293,-0.493270,-0.500201,-0.494882,-0.491980,-0.500523,-0.490691,-0.501168,-0.505036,-0.512289,-0.532115,-0.553552,-0.483599,-0.501974,-0.498266,-0.483760,-0.535016,-0.495204,-0.503908,-0.531309,-0.544204,-0.533082,-0.543881,-0.510194,-0.530020,-0.507615,-0.491336,-0.530987,-0.519543,-0.518898,-0.490691,-0.504553,-0.484888,-0.501651,-0.487467,-0.525023,-0.490046,-0.491013,-0.528569,-0.497299,-0.525345,-0.487790,-0.501974,-0.488918,-0.516158,-0.532921,-0.506164,-0.503424,-0.528247,-0.500523,-0.529052,-0.481020,-0.515835,-0.487790,-0.535177,-0.482148,-0.487145,-0.514546,-0.492141,-0.491013,-0.475701,-0.526957,-0.484888,-0.517608,-0.481181,-0.484727,-0.503424,-0.486178,-0.484727,-0.483115,-0.492464,-0.478924,-0.489240,-0.480053,-0.476184,-0.490207,-0.489885,-0.528891,-0.534372,-0.525023,-0.506648,-0.524701,-0.532276,-0.534210,-0.548395,-0.541786,-0.508582,-0.514224,-0.496493,-0.511967,-0.547911,-0.545010,-0.518898,-0.548072,-0.494882,-0.520993,-0.517125,-0.513579,-0.518414,-0.523733,-0.509066,-0.562256,-0.556776,-0.539852,-0.514224,-0.554520,-0.561773,-0.515030,-0.544848,-0.533566,-0.506487,-0.480697,-0.506326,-0.531148,-0.486339,-0.541947,-0.539691,-0.487628,-0.535339,-0.541947,-0.496655,-0.553069,-0.498428,-0.497461,-0.518414,-0.502618,-0.545654,-0.536145,-0.498428,-0.510194,-0.487467,-0.538724,-0.510678,-0.488918,-0.556131,-0.532276,-0.535983,-0.503585,-0.517931,-0.501651,-0.515191,-0.543237,-0.506164,-0.505197,-0.530664,-0.479086,-0.498750,-0.476990,-0.495365,-0.554036,-0.489563,-0.500039,-0.497138,-0.521799,-0.533404,-0.500362,-0.473444,-0.505842,-0.469092,-0.461517,-0.499234,-0.506970,-0.459421,-0.487951,-0.446204,-0.427346,-0.447655,-0.424928,-0.416708,-0.414129,-0.446043,-0.445882,-0.393497,-0.439918,-0.381247,-0.401556,-0.371093,-0.380925,-0.378346,-0.425734,-0.408004,-0.406231,-0.426056,-0.470382,-0.501974,-0.522766,-0.582404,-0.633499,-0.648812,-0.654131,-0.706677,-0.719572,-0.737785,-0.700068,-0.706516,-0.697651,-0.720216,-0.743749,-0.704259,-0.681693,-0.730048,-0.770344,-0.714736,-0.763736,-0.742137,-0.677503,-0.668960,-0.702164,-0.672989,-0.614641,-0.605776,-0.571121,-0.548395,-0.547105,-0.574506,-0.522122,-0.497783,-0.559516,-0.514224,-0.538885,-0.512934,-0.526796,-0.528085,-0.502296,-0.522122,-0.487306,-0.519543,-0.479086,-0.518576,-0.457809,-0.510839,-0.500523,-0.500039,-0.509066,-0.519543,-0.497299,-0.490368,-0.479086,-0.475540,-0.496332,-0.521799,-0.477957,-0.463128,-0.465224,-0.462967,-0.465385,-0.457326,-0.474572,-0.461355,-0.470059,-0.463128,-0.466352,-0.461839,-0.457809,-0.496655,-0.515191,-0.448461,-0.497299,-0.513740,-0.502618,-0.488595,-0.444915,-0.463290,-0.457003,-0.430408,-0.445076,-0.454263,-0.496655,-0.502457,-0.464579,-0.450234,-0.493914,-0.456198,-0.453941,-0.457487,-0.458615,-0.445559,-0.450556,-0.450556,-0.492303,-0.442497,-0.453296,-0.445398,-0.449105,-0.458615,-0.452974,-0.459905,-0.493270,-0.493270,-0.493109,-0.500845,-0.446365,-0.465869,-0.447332,-0.476507,-0.481020,-0.493753,-0.459905,-0.490368,-0.478924,-0.495526,-0.448300,-0.454747,-0.451201,-0.441530,-0.447332,-0.471832,-0.442980,-0.450073,-0.450556,-0.443948,-0.501329,-0.443142,-0.437178,-0.458293,-0.430892,-0.442336,-0.439918,-0.453780,-0.455875,-0.486339,-0.453941,-0.463290,-0.461678,-0.485694,-0.443303,-0.462484,-0.485049,-0.439434,-0.480214,-0.437178,-0.502457,-0.438790,-0.437178,-0.454425,-0.464579,-0.447655,-0.440079,-0.448783,-0.442175,-0.485211,-0.480536,-0.437984,-0.491980,-0.436694,-0.434760,-0.435566,-0.453619,-0.482954,-0.420415,-0.433632,-0.433471,-0.427507,-0.436211,-0.453296,-0.488918,-0.426540,-0.468286,-0.476668,-0.456842,-0.426217,-0.452007,-0.454425,-0.426379,-0.412194,-0.452490,-0.457809,-0.428796,-0.423800,-0.414935,-0.455714,-0.465385,-0.423155,-0.412356,-0.416708,-0.416869,-0.471349,-0.458938,-0.409454,-0.464418,-0.415740,-0.392047,-0.413967,-0.412678,-0.415257,-0.436694
 10:15:38.,-0.444270,-0.466352,-0.450234,-0.408326,-0.424444,-0.407681,-0.430408,-0.471832,-0.403974,-0.407520,-0.401718,-0.412839,-0.419287,-0.460388,-0.411872,-0.415418,-0.422994,-0.464579,-0.420576,-0.429925,-0.423155,-0.441530,-0.453780,-0.447816,-0.432181,-0.427668,-0.425734,-0.428313,-0.471832,-0.412678,-0.437661,-0.428474,-0.481987,-0.446204,-0.478602,-0.442336,-0.450395,-0.440079,-0.452007,-0.485855,-0.484405,-0.501812,-0.439918,-0.466030,-0.497299,-0.432665,-0.451362,-0.457809,-0.459099,-0.511645,-0.505197,-0.483115,-0.527279,-0.472799,-0.500684,-0.477151,-0.476668,-0.479086,-0.514868,-0.515191,-0.533888,-0.490046,-0.524701,-0.545171,-0.534372,-0.490530,-0.515835,-0.496010,-0.501651,-0.499878,-0.511000,-0.511161,-0.505036,-0.538562,-0.518253,-0.557421,-0.539691,-0.554197,-0.493592,-0.534210,-0.513257,-0.502296,-0.515191,-0.542431,-0.554520,-0.572250,-0.517286,-0.518253,-0.547266,-0.520187,-0.529697,-0.531793,-0.545332,-0.511483,-0.514868,-0.512451,-0.540980,-0.523572,-0.516641,-0.536145,-0.550812,-0.518253,-0.546783,-0.563546,-0.566931,-0.535016,-0.520349,-0.523089,-0.525829,-0.547589,-0.562256,-0.539046,-0.496655,-0.509710,-0.499234,-0.505842,-0.559839,-0.562579,-0.555809,-0.557904,-0.556776,-0.552102,-0.528891,-0.549039,-0.507615,-0.508905,-0.526151,-0.528247,-0.491658,-0.514868,-0.510194,-0.503263,-0.560000,-0.564674,-0.499556,-0.519381,-0.560000,-0.509388,-0.516641,-0.510678,-0.538240,-0.561773,-0.544687,-0.484405,-0.502296,-0.509388,-0.499072,-0.521638,-0.480536,-0.550168,-0.557260,-0.500523,-0.549362,-0.540335,-0.505036,-0.503908,-0.555487,-0.499395,-0.498911,-0.541625,-0.478118,-0.504714,-0.483115,-0.494237,-0.510839,-0.519704,-0.541786,-0.538562,-0.545332,-0.538562,-0.498266,-0.519059,-0.538885,-0.499072,-0.485694,-0.528891,-0.500039,-0.489724,-0.546138,-0.474250,-0.485211,-0.543398,-0.482470,-0.502618,-0.488434,-0.533888,-0.506648,-0.495526,-0.500845,-0.499717,-0.492141,-0.547750,-0.488757,-0.463128,-0.485211,-0.505842,-0.526635,-0.509066,-0.545977,-0.500523,-0.506809,-0.531470,-0.508905,-0.494237,-0.486984,-0.545010,-0.490368,-0.476829,-0.505359,-0.497622,-0.474411,-0.508099,-0.479086,-0.484566,-0.535177,-0.506003,-0.506326,-0.513418,-0.538240,-0.531470,-0.536950,-0.502941,-0.511483,-0.525506,-0.512773,-0.500684,-0.522283,-0.483276,-0.511645,-0.514546,-0.538401,-0.537112,-0.480859,-0.512289,-0.532921,-0.521799,-0.503747,-0.541786,-0.497944,-0.549523,-0.493592,-0.494720,-0.535016,-0.520510,-0.485049,-0.508905,-0.530503,-0.539691,-0.491980,-0.533888,-0.550490,-0.520993,-0.498266,-0.519543,-0.535661,-0.498589,-0.491336,-0.540819,-0.479086,-0.474411,-0.537112,-0.483921,-0.527924,-0.489401,-0.520510,-0.500845,-0.536145,-0.511967,-0.538240,-0.511806,-0.497622,-0.495526,-0.496977,-0.526312,-0.517608,-0.549362,-0.528730,-0.501329,-0.527279,-0.492625,-0.543720,-0.539368,-0.517931,-0.507937,-0.494559,-0.554036,-0.553230,-0.523733,-0.507293,-0.504069,-0.536950,-0.511000,-0.516158,-0.476507,-0.498428,-0.537756,-0.474250,-0.506326,-0.496816,-0.508582,-0.567737,-0.511161,-0.548395,-0.497944,-0.530664,-0.491658,-0.493109,-0.486339,-0.509227,-0.502135,-0.492303,-0.494237,-0.490691,-0.558871,-0.556454,-0.514546,-0.530503,-0.513095,-0.475862,-0.528408,-0.518737,-0.504230,-0.514707,-0.488273,-0.503908,-0.544365,-0.479569,-0.522605,-0.526474,-0.525668,-0.475378,-0.495688,-0.483599,-0.484405,-0.525506,-0.492464,-0.522928,-0.480214,-0.499072,-0.525506,-0.522444,-0.527924,-0.520187,-0.494720,-0.499072,-0.455230,-0.530020,-0.483115,-0.493270,-0.521155,-0.523895,-0.530503,-0.484243,-0.497783,-0.528085,-0.525023,-0.519220,-0.484243,-0.510194,-0.507293,-0.488595,-0.475862,-0.520993,-0.492141,-0.495204,-0.492141,-0.490207,-0.498589,-0.533404,-0.550006,-0.517931,-0.494882,-0.509388,-0.503424,-0.512128,-0.543398,-0.519865,-0.534049,-0.509066,-0.500039,-0.541947,-0.533566,-0.510516,-0.516158,-0.506809,-0.516641,-0.503585,-0.533727,-0.542431,-0.490530,-0.494882,-0.502780,-0.538079,-0.510516,-0.537434,-0.545010,-0.507776,-0.481342,-0.538885,-0.524539,-0.543881,-0.506648,-0.507132,-0.508260,-0.539529,-0.500684,-0.501329,-0.550812,-0.514707,-0.552263,-0.491980,-0.474250,-0.520510,-0.480375,-0.540819,-0.552263,-0.485694,-0.501812,-0.520993,-0.496332,-0.497138,-0.491336,-0.500201,-0.498428,-0.490368,-0.553069,-0.498589,-0.507937,-0.506487,-0.526474,-0.494076,-0.539046,-0.510355,-0.517608,-0.529536,-0.532599,-0.488112,-0.501168,-0.464418,-0.472477,-0.508421,-0.456359,-0.462806,-0.447171,-0.457971,-0.451040,-0.468286,-0.497944,-0.456036,-0.427507,-0.461033,-0.448138,-0.420415,-0.445559,-0.438790,-0.415257,-0.432826,-0.382214,-0.418964,-0.362872,-0.394625,-0.361583,-0.385922,-0.406875,-0.407037,-0.427507,-0.450073,-0.472638,-0.503263,-0.594977,-0.566769,-0.591592,-0.641881,-0.683466,-0.661545,-0.682822,-0.651713,-0.666059,-0.680887,-0.729726,-0.665736,-0.669766,-0.741976,-0.694910,-0.736979,-0.710868,-0.690236,-0.731499,-0.668960,-0.671216,-0.649618,-0.639302,-0.594009,-0.597717,-0.577246,-0.552263,-0.535983,-0.568381,-0.518898,-0.548395,-0.507776,-0.498266,-0.506164,-0.481987,-0.528085,-0.530664,-0.527602,-0.468609,-0.523572,-0.524378,-0.496493,-0.465224,-0.475056,-0.508260,-0.480697,-0.452007,-0.508421,-0.461839,-0.456520,-0.458938,-0.481181,-0.484888,-0.481987,-0.508260,-0.506970,-0.479408,-0.494882,-0.496816,-0.471994,-0.493753,-0.451040,-0.491980,-0.505520,-0.503424,-0.513579,-0.480536,-0.476668,-0.497944,-0.455875,-0.480053,-0.512128,-0.511483,-0.462000,-0.485855,-0.453619,-0.442175,-0.469898,-0.462323,-0.460711,-0.508099,-0.452168,-0.478602,-0.474411,-0.454263,-0.478441,-0.476023,-0.475701,-0.448944,-0.500201,-0.437339,-0.475378,-0.462645,-0.495688,-0.498105,-0.492464,-0.461839,-0.461678,-0.458454,-0.487467,-0.445076,-0.469898,-0.489240,-0.443625,-0.453780,-0.473122,-0.497944,-0.465224,-0.481503,-0.486500,-0.459905,-0.436372,-0.484888,-0.462484,-0.464740,-0.486822,-0.464257,-0.450234,-0.452974,-0.466997,-0.484888,-0.502780,-0.491980,-0.458293,-0.437017,-0.436050,-0.451523,-0.442013,-0.479892,-0.433793,-0.454747,-0.444592,-0.496655,-0.473928,-0.457971,-0.437178,-0.445882,-0.460711,-0.433632,-0.432826,-0.494076,-0.422510,-0.419770,-0.483760,-0.471994,-0.489401,-0.437500,-0.476829,-0.440563,-0.447977,-0.439918,-0.441691,-0.494237,-0.454425,-0.423477,-0.444592,-0.439112,-0.420415,-0.463451,-0.479086,-0.471832,-0.441530,-0.436694,-0.475378,-0.471510,-0.430408,-0.417675,-0.430247,-0.448622,-0.424606,-0.435082,-0.419125,-0.471349,-0.464257,-0.409132,-0.465707,-0.440402,-0.396882,-0.432665,-0.411711,-0.462967,-0.433309,-0.413484,-0.467964,-0.410260,-0.416063,-0.456842,-0.451201,-0.410421,-0.411389,-0.446043,-0.446527,-0.406231,-0.433632,-0.395915,-0.425573,-0.413162,-0.410099,-0.411711,-0.443948,-0.455714,-0.437984,-0.432020,-0.418964,-0.418158,-0.427346,-0.425411,-0.455392,-0.393820,-0.405747,-0.432504,-0.438629,-0.424606,-0.452007,-0.428958,-0.406392,-0.407681,-0.447977,-0.432020,-0.471832,-0.415579,-0.421060,-0.439434,-0.406231,-0.454586,-0.424283,-0.463612,-0.421704,-0.425089,-0.476990,-0.476184,-0.476668,-0.454586,-0.423155,-0.479247,-0.476668,-0.471671,-0.483599,-0.462484,-0.456198,-0.491980,-0.439918,-0.441046,-0.440402,-0.491336,-0.438306,-0.469737,-0.496816,-0.506326,-0.479086,-0.496977,-0.479892,-0.478763,-0.465063,-0.528891,-0.491819,-0.514385,-0.513740,-0.468770,-0.524862,-0.500201,-0.534694,-0.538724,-0.492786,-0.518092,-0.497461,-0.505842,-0.514707,-0.482309,-0.552908,-0.517770,-0.497461,-0.497944,-0.550006,-0.488273,-0.502457,-0.541786,-0.508421,-0.558710,-0.513901,-0.501168,-0.523411,-0.556615,-0.521638,-0.570638,-0.554681,-0.518737,-0.520510,-0.560967,-0.527602,-0.546299,-0.523250,-0.542270,-0.536145,-0.550490,-0.552585,-0.491819,-0.519059,-0.533243,-0.517770,-0.533727,-0.564029,-0.513901,-0.521477,-0.529858,-0.526635,-0.504553,-0.514707,-0.547589,-0.568220,-0.552424,-0.533566,-0.532921,-0.574990,-0.519865,-0.545010,-0.536628,-0.515997,-0.545977,-0.560161,-0.528408,-0.522444,-0.558066,-0.560644,-0.497944,-0.535983,-0.516964,-0.544365,-0.505036,-0.506326,-0.543398,-0.520510,-0.524701,-0.510678,-0.523411,-0.515030,-0.537434,-0.555970,-0.516803,-0.534694,-0.543237,-0.516641,-0.518414,-0.492947,-0.520187,-0.557904,-0.520993,-0.523572,-0.561128,-0.549039,-0.515352,-0.545171,-0.505036,-0.541625,-0.511000,-0.490691,-0.538562,-0.550973,-0.494559,-0.498750,-0.540497,-0.514546,-0.550812,-0.490046,-0.511483,-0.518092,-0.540497,-0.509227,-0.545816,-0.501329,-0.554681,-0.488434,-0.537434,-0.498266,-0.515191,-0.525184,-0.480214,-0.473122,-0.552908,-0.534372,-0.489724,-0.533566,-0.530020,-0.529536,-0.491013,-0.497461,-0.538079,-0.491174,-0.495204,-0.545171,-0.512773,-0.533404,-0.491013,-0.491336,-0.475378,-0.501007,-0.525184,-0.496171,-0.488273,-0.508905,-0.498105,-0.495365,-0.511322,-0.544687,-0.480697,-0.515674,-0.480375,-0.474895,-0.544848,-0.515513,-0.470382,-0.540819,-0.497461,-0.527279,-0.509710,-0.501812,-0.486984,-0.533082,-0.534533,-0.487628,-0.485855,-0.524378,-0.487467,-0.529375,-0.479892,-0.499395,-0.495526,-0.487790,-0.490046,-0.489724,-0.538079,-0.480375,-0.510033,-0.546299,-0.528891,-0.501651,-0.525184,-0.499234,-0.496332,-0.494720,-0.551296,-0.480375,-0.517931,-0.511806,-0.489563,-0.481826,-0.536950,-0.547266,-0.488112,-0.492464,-0.538885,-0.491980,-0.496655,-0.504714,-0.489885,-0.487467,-0.489079,-0.519543,-0.474734,-0.511645,-0.530342,-0.518576,-0.506164,-0.520671,-0.517770,-0.509066,-0.490046,-0.486822,-0.506648,-0.507776,-0.507132,-0.519865,-0.496171,-0.538401,-0.532276,-0.497461,-0.467964,-0.521316,-0.487628,-0.521638,-0.486178,-0.496655,-0.490691,-0.547750,-0.497783,-0.532437,-0.506648,-0.535500,-0.488757,-0.521155,-0.483760,-0.478924,-0.536467,-0.483115,-0.487145,-0.507293,-0.535500,-0.508099,-0.502780,-0.517447,-0.486822,-0.484727,-0.521799,-0.534372,-0.531793,-0.533243,-0.527602,-0.472155,-0.482470,-0.524539,-0.463451,-0.524378,-0.506809,-0.525668,-0.486178,-0.479892,-0.526312,-0.484566,-0.520671,-0.545332,-0.476507,-0.478924,-0.478602,-0.485372,-0.517608,-0.513579,-0.495526,-0.507293,-0.468609,-0.484566,-0.528891
 10:15:39.,-0.533404,-0.538079,-0.526957,-0.539046,-0.494882,-0.502296,-0.503747,-0.541141,-0.509872,-0.523572,-0.537595,-0.479730,-0.506487,-0.492141,-0.496816,-0.536789,-0.496332,-0.557904,-0.511161,-0.497138,-0.544365,-0.500684,-0.517770,-0.509549,-0.526312,-0.554681,-0.497622,-0.487628,-0.525829,-0.559839,-0.495043,-0.499234,-0.501651,-0.503747,-0.532599,-0.557260,-0.550490,-0.514224,-0.503424,-0.506164,-0.513740,-0.527602,-0.545816,-0.537112,-0.489885,-0.521799,-0.511000,-0.545171,-0.499234,-0.499556,-0.504391,-0.528408,-0.496010,-0.498266,-0.497622,-0.508743,-0.531631,-0.498105,-0.543559,-0.557904,-0.505681,-0.497944,-0.490530,-0.524701,-0.555970,-0.530503,-0.510516,-0.532760,-0.529536,-0.511483,-0.554681,-0.547266,-0.547589,-0.502457,-0.507293,-0.540658,-0.537595,-0.544043,-0.518253,-0.482309,-0.514868,-0.482954,-0.509388,-0.480053,-0.521960,-0.470382,-0.456842,-0.460227,-0.471510,-0.456198,-0.494076,-0.498911,-0.441369,-0.438951,-0.433793,-0.440079,-0.425089,-0.448461,-0.403329,-0.446527,-0.383181,-0.387856,-0.425250,-0.400267,-0.412839,-0.392369,-0.408004,-0.389468,-0.425573,-0.412839,-0.453780,-0.491980,-0.487306,-0.530020,-0.547911,-0.621733,-0.630598,-0.622055,-0.663318,-0.689914,-0.649940,-0.694588,-0.703776,-0.678309,-0.658805,-0.681371,-0.678147,-0.662029,-0.678631,-0.667832,-0.671216,-0.687012,-0.693137,-0.661707,-0.637851,-0.627697,-0.644943,-0.592881,-0.618187,-0.581598,-0.560483,-0.571121,-0.526312,-0.530664,-0.492141,-0.478280,-0.474089,-0.519059,-0.483921,-0.481020,-0.541464,-0.518898,-0.522283,-0.520187,-0.478118,-0.475701,-0.507293,-0.466997,-0.479408,-0.489401,-0.463612,-0.463290,-0.443948,-0.500039,-0.503424,-0.468770,-0.470865,-0.505842,-0.511161,-0.465546,-0.510516,-0.506487,-0.507132,-0.483921,-0.501329,-0.504230,-0.464418,-0.509549,-0.462000,-0.494237,-0.473767,-0.491497,-0.471994,-0.470221,-0.505520,-0.470865,-0.516964,-0.479408,-0.484888,-0.468286,-0.509872,-0.499234,-0.487306,-0.490691,-0.492625,-0.474089,-0.450073,-0.448622,-0.486016,-0.477796,-0.460872,-0.467480,-0.467319,-0.507132,-0.481181,-0.476829,-0.488112,-0.474411,-0.499234,-0.511322,-0.449589,-0.436856,-0.452007,-0.449428,-0.494720,-0.463934,-0.495526,-0.458776,-0.499395,-0.496010,-0.471671,-0.498750,-0.456520,-0.495849,-0.452813,-0.509872,-0.463934,-0.442175,-0.493753,-0.448461,-0.444270,-0.487951,-0.497783,-0.469898,-0.500684,-0.447332,-0.460711,-0.450073,-0.442819,-0.472961,-0.461839,-0.446365,-0.475056,-0.471832,-0.470059,-0.481987,-0.434760,-0.496655,-0.476023,-0.496977,-0.458776,-0.452168,-0.464096,-0.445237,-0.455714,-0.451846,-0.490691,-0.441530,-0.442336,-0.479569,-0.440079,-0.489401,-0.418642,-0.452813,-0.489401,-0.478280,-0.497622,-0.479569,-0.431375,-0.464096,-0.441691,-0.435888,-0.446204,-0.434921,-0.430408,-0.445721,-0.440240,-0.463934,-0.464901,-0.447494,-0.453780,-0.467642,-0.428152,-0.431536,-0.438467,-0.458776,-0.435888,-0.446688,-0.474250,-0.423961,-0.459421,-0.451362,-0.413645,-0.463612,-0.443948,-0.428635,-0.410583,-0.404135,-0.476184,-0.422994,-0.418642,-0.457648,-0.483599,-0.426701,-0.445237,-0.424606,-0.455392,-0.440724,-0.457971,-0.407520,-0.432342,-0.425734,-0.423638,-0.455069,-0.404619,-0.412517,-0.459099,-0.426540,-0.438951,-0.461517,-0.423638,-0.414935,-0.464257,-0.463612,-0.448944,-0.415418,-0.413323,-0.391402,-0.411550,-0.445237,-0.441530,-0.449267,-0.418158,-0.413806,-0.430247,-0.465707,-0.454747,-0.414129,-0.420737,-0.455553,-0.439757,-0.417191,-0.470865,-0.466352,-0.461517,-0.441852,-0.442658,-0.455230,-0.471026,-0.424928,-0.479730,-0.432181,-0.442497,-0.484082,-0.458615,-0.456520,-0.446365,-0.497944,-0.503585,-0.493270,-0.481181,-0.450073,-0.450395,-0.452007,-0.472638,-0.469092,-0.473444,-0.483115,-0.495688,-0.523411,-0.528569,-0.529697,-0.498266,-0.491819,-0.491336,-0.529052,-0.518092,-0.541464,-0.519220,-0.511483,-0.531793,-0.530020,-0.536789,-0.494720,-0.496332,-0.552908,-0.501168,-0.499072,-0.535500,-0.536145,-0.506970,-0.540980,-0.503263,-0.500845,-0.503585,-0.511645,-0.511806,-0.541464,-0.498750,-0.543881,-0.497783,-0.551941,-0.506164,-0.555970,-0.584983,-0.564191,-0.519381,-0.562256,-0.501651,-0.562901,-0.539207,-0.505036,-0.563546,-0.480697,-0.519059,-0.514062,-0.513257,-0.519220,-0.562901,-0.540819,-0.516964,-0.553714,-0.555487,-0.514707,-0.561128,-0.515513,-0.518092,-0.502457,-0.508421,-0.547911,-0.517125,-0.557582,-0.547750,-0.554197,-0.523250,-0.503102,-0.565319,-0.526312,-0.524701,-0.530826,-0.501812,-0.536467,-0.509872,-0.489401,-0.552424,-0.496171,-0.505036,-0.504875,-0.490852,-0.516641,-0.521155,-0.517608,-0.552585,-0.511161,-0.506326,-0.504714,-0.544365,-0.540174,-0.547427,-0.549200,-0.506648,-0.518092,-0.480697,-0.501651,-0.514385,-0.485533,-0.532760,-0.506809,-0.507615,-0.524862,-0.499556,-0.506970,-0.496010,-0.499717,-0.520832,-0.513418,-0.508421,-0.549039,-0.478763,-0.532760,-0.475701,-0.501490,-0.539046,-0.502618,-0.503102,-0.509710,-0.517447,-0.521960,-0.555325,-0.501007,-0.539207,-0.500039,-0.474734,-0.504714,-0.520993,-0.481826,-0.488273,-0.474734,-0.522766,-0.486984,-0.496332,-0.523572,-0.492303,-0.538079,-0.492464,-0.529858,-0.505036,-0.495043,-0.506809,-0.486500,-0.476507,-0.533566,-0.478118,-0.481020,-0.492141,-0.492625,-0.532276,-0.549684,-0.498750,-0.503908,-0.510355,-0.495526,-0.503263,-0.529697,-0.533888,-0.500523,-0.525506,-0.475701,-0.481665,-0.453780,-0.515513,-0.513418,-0.491980,-0.497138,-0.498911,-0.553069,-0.540658,-0.513418,-0.492625,-0.506164,-0.515997,-0.487790,-0.500201,-0.482470,-0.502941,-0.529214,-0.490046,-0.545171,-0.482309,-0.540658,-0.538401,-0.493270,-0.528569,-0.492303,-0.543075,-0.496010,-0.536145,-0.514868,-0.484888,-0.518898,-0.500362,-0.452490,-0.530826,-0.500523,-0.504069,-0.549684,-0.489563,-0.534694,-0.546138,-0.485049,-0.529375,-0.486500,-0.541302,-0.508582,-0.492786,-0.525184,-0.497944,-0.477635,-0.515997,-0.484405,-0.466997,-0.489563,-0.492464,-0.535983,-0.485694,-0.495365,-0.482470,-0.486822,-0.498105,-0.507293,-0.551779,-0.524862,-0.544043,-0.535661,-0.477151,-0.514062,-0.521316,-0.484888,-0.527924,-0.486339,-0.528247,-0.522283,-0.484243,-0.533727,-0.508421,-0.506970,-0.491980,-0.486339,-0.477474,-0.488918,-0.466836,-0.461517,-0.524056,-0.449105,-0.509066,-0.517125,-0.521155,-0.509066,-0.474572,-0.489079,-0.484243,-0.522444,-0.498750,-0.477796,-0.479408,-0.477474,-0.516803,-0.469253,-0.481987,-0.486661,-0.512289,-0.480053,-0.485211,-0.486984,-0.490368,-0.521155,-0.506003,-0.522605,-0.511806,-0.543075,-0.493914,-0.497138,-0.506809,-0.478763,-0.536306,-0.519865,-0.480375,-0.538724,-0.485211,-0.497622,-0.517447,-0.524539,-0.529858,-0.492947,-0.535661,-0.536789,-0.540819,-0.527441,-0.513418,-0.539368,-0.498750,-0.488112,-0.484566,-0.535983,-0.550329,-0.490207,-0.541302,-0.501490,-0.538724,-0.551779,-0.544204,-0.524056,-0.533404,-0.540497,-0.515030,-0.486339,-0.496010,-0.500523,-0.483921,-0.501812,-0.483599,-0.499878,-0.510355,-0.510839,-0.509710,-0.536789,-0.520671,-0.501490,-0.502780,-0.537112,-0.495526,-0.499234,-0.484405,-0.502941,-0.494237,-0.484405,-0.500201,-0.488273,-0.493109,-0.496816,-0.498105,-0.498105,-0.495849,-0.495365,-0.493431,-0.490368,-0.495526,-0.492947,-0.503102,-0.538885,-0.539046,-0.523411,-0.484082,-0.488757,-0.505359,-0.483438,-0.522766,-0.469737,-0.526312,-0.476023,-0.471671,-0.488595,-0.497299,-0.511000,-0.498750,-0.490368,-0.458293,-0.454747,-0.480697,-0.434115,-0.416869,-0.460711,-0.409293,-0.455875,-0.406231,-0.396076,-0.437661,-0.437017,-0.420737,-0.382698,-0.397688,-0.430892,-0.394625,-0.406714,-0.398171,-0.434921,-0.485049,-0.518253,-0.509066,-0.537112,-0.575473,-0.583210,-0.593042,-0.608032,-0.624312,-0.682016,-0.638496,-0.672828,-0.690720,-0.680565,-0.648006,-0.705387,-0.626569,-0.647845,-0.660739,-0.662674,-0.698618,-0.649940,-0.641236,-0.636401,-0.658322,-0.615125,-0.592720,-0.623828,-0.555809,-0.577085,-0.568220,-0.515352,-0.546944,-0.518414,-0.497299,-0.518414,-0.478441,-0.481665,-0.479892,-0.530342,-0.529214,-0.477474,-0.552908,-0.474734,-0.481826,-0.478602,-0.511967,-0.457971,-0.454586,-0.475056,-0.451846,-0.482470,-0.478763,-0.470543,-0.513095,-0.509388,-0.519220,-0.499072,-0.459260,-0.460549,-0.500684,-0.472799,-0.459582,-0.465224,-0.511322,-0.442658,-0.462967,-0.507776,-0.447494,-0.466674,-0.467642,-0.457003,-0.471994,-0.501168,-0.479730,-0.471832,-0.475056,-0.502780,-0.458293,-0.466030,-0.467480,-0.447171,-0.457326,-0.430892,-0.491497,-0.497944,-0.510516,-0.496816,-0.511000,-0.468931,-0.458938,-0.466836,-0.457003,-0.509549,-0.461194,-0.443948,-0.518092,-0.455553,-0.439434,-0.453135,-0.436372,-0.456036,-0.495849,-0.449589,-0.490046,-0.454747,-0.457971,-0.509227,-0.447816,-0.462484,-0.473767,-0.497299,-0.490852,-0.452813,-0.438629,-0.442819,-0.491174,-0.439434,-0.453296,-0.462161,-0.451523,-0.504714,-0.495526,-0.495204,-0.493431,-0.501651,-0.499717,-0.478602,-0.454263,-0.456842,-0.440402,-0.456198,-0.476345,-0.445721,-0.450878,-0.446204,-0.457487,-0.497622,-0.445076,-0.457809,-0.458132,-0.439596,-0.472799,-0.449267,-0.454586,-0.492625,-0.470059,-0.443786,-0.443786,-0.435244,-0.489401,-0.434277,-0.462806,-0.472638,-0.435566,-0.457487,-0.437500,-0.458293,-0.449750,-0.493109,-0.436050,-0.452652,-0.462967,-0.473767,-0.469092,-0.421221,-0.462484,-0.423316,-0.473605,-0.446688,-0.480214,-0.443948,-0.485533,-0.465869,-0.433632,-0.476023,-0.431698,-0.472477,-0.449428,-0.439273,-0.448461,-0.421704,-0.426379,-0.425895,-0.440240,-0.423800,-0.410905,-0.422349,-0.432665,-0.417997,-0.430086,-0.420092,-0.424767,-0.461839,-0.408971,-0.413484,-0.414935,-0.437500,-0.441369,-0.410583,-0.400912,-0.452168,-0.414773,-0.406231,-0.458776,-0.413162,-0.454908,-0.413645,-0.450878,-0.407037,-0.429602,-0.433954,-0.433793,-0.406714,-0.423638,-0.410583,-0.448944,-0.416385,-0.420092,-0.454747,-0.415096,-0.415257,-0.474411,-0.423800,-0.422994,-0.459744,-0.473605,-0.475540,-0.462323,-0.425895,-0.443625,-0.414612,-0.418803,-0.466352,-0.463128,-0.441691,-0.450234,-0.482632,-0.477313,-0.477635,-0.485533,-0.485372,-0.498750,-0.469253,-0.464579,-0.482954,-0.465385,-0.450234,-0.449589,-0.465224,-0.487467,-0.490046,-0.503424,-0.501168
 10:15:40.,-0.509710,-0.500362,-0.470865,-0.480859,-0.482793,-0.496816,-0.530664,-0.515513,-0.485694,-0.539691,-0.503908,-0.480859,-0.486984,-0.520349,-0.486500,-0.505197,-0.509710,-0.562256,-0.501490,-0.541141,-0.503747,-0.500039,-0.543398,-0.539529,-0.498105,-0.524378,-0.549200,-0.500684,-0.501974,-0.491658,-0.507454,-0.549362,-0.543075,-0.552585,-0.507937,-0.514868,-0.512773,-0.514707,-0.521477,-0.570315,-0.518253,-0.547105,-0.518414,-0.504714,-0.519059,-0.504391,-0.515191,-0.512451,-0.539852,-0.555809,-0.513418,-0.511806,-0.561128,-0.517125,-0.547750,-0.541302,-0.515352,-0.528408,-0.510678,-0.548072,-0.512128,-0.539368,-0.524378,-0.506648,-0.546783,-0.514062,-0.561612,-0.537595,-0.522444,-0.516641,-0.552424,-0.513257,-0.546460,-0.514385,-0.562095,-0.507454,-0.507615,-0.544365,-0.511161,-0.528408,-0.475701,-0.506970,-0.563223,-0.540497,-0.517931,-0.518414,-0.521799,-0.564191,-0.513418,-0.544365,-0.513740,-0.511967,-0.508421,-0.496010,-0.498266,-0.545816,-0.490368,-0.541786,-0.498589,-0.554520,-0.508260,-0.507454,-0.520026,-0.508421,-0.545010,-0.498105,-0.539046,-0.500845,-0.498589,-0.508743,-0.487306,-0.498911,-0.499717,-0.499234,-0.509066,-0.490852,-0.508582,-0.503585,-0.500039,-0.504553,-0.503102,-0.550006,-0.499878,-0.539207,-0.500201,-0.500523,-0.521316,-0.482470,-0.479408,-0.517770,-0.527118,-0.492464,-0.484082,-0.543237,-0.538401,-0.504069,-0.493914,-0.539207,-0.499395,-0.492141,-0.486500,-0.492625,-0.474089,-0.496332,-0.505359,-0.460388,-0.491819,-0.479892,-0.531954,-0.484727,-0.488434,-0.507615,-0.526635,-0.486822,-0.488918,-0.493270,-0.487145,-0.498428,-0.483276,-0.518253,-0.488434,-0.508099,-0.468931,-0.505197,-0.466674,-0.535500,-0.532760,-0.480536,-0.528891,-0.524539,-0.536145,-0.537756,-0.510355,-0.479408,-0.479408,-0.483599,-0.472155,-0.485855,-0.475056,-0.495526,-0.510839,-0.515513,-0.527118,-0.526635,-0.507293,-0.518092,-0.526151,-0.539852,-0.525990,-0.507937,-0.519704,-0.518092,-0.518898,-0.530020,-0.501329,-0.527441,-0.521155,-0.500201,-0.519543,-0.506326,-0.500039,-0.527441,-0.486984,-0.498428,-0.495849,-0.543720,-0.525506,-0.477796,-0.485694,-0.477796,-0.468125,-0.507776,-0.507615,-0.479730,-0.488273,-0.526312,-0.489885,-0.503585,-0.535500,-0.476668,-0.479247,-0.520510,-0.468125,-0.514707,-0.473122,-0.524378,-0.463290,-0.475540,-0.471188,-0.505197,-0.484888,-0.482470,-0.477796,-0.482309,-0.515191,-0.479569,-0.475701,-0.490852,-0.531954,-0.516480,-0.494720,-0.480697,-0.479892,-0.476345,-0.467480,-0.473605,-0.466191,-0.512128,-0.489885,-0.491336,-0.474895,-0.488595,-0.501812,-0.502135,-0.540335,-0.495043,-0.484405,-0.521960,-0.495526,-0.499072,-0.540980,-0.519220,-0.496171,-0.481665,-0.501974,-0.500201,-0.481987,-0.550812,-0.492786,-0.511000,-0.555809,-0.526957,-0.552424,-0.529052,-0.500201,-0.526312,-0.493431,-0.498911,-0.535983,-0.527441,-0.489563,-0.552102,-0.541625,-0.540819,-0.517608,-0.497138,-0.513901,-0.503263,-0.540013,-0.549039,-0.542431,-0.551135,-0.504069,-0.476668,-0.548395,-0.522444,-0.486178,-0.556131,-0.504714,-0.554197,-0.539368,-0.512128,-0.503585,-0.525829,-0.540497,-0.536628,-0.526151,-0.546622,-0.542108,-0.529214,-0.533727,-0.491174,-0.532276,-0.506326,-0.497299,-0.526151,-0.538885,-0.501651,-0.501974,-0.514707,-0.498911,-0.551779,-0.536467,-0.541464,-0.542270,-0.532599,-0.510516,-0.482148,-0.480697,-0.508743,-0.469576,-0.484405,-0.459421,-0.498750,-0.479408,-0.494559,-0.502457,-0.461517,-0.503585,-0.474895,-0.492303,-0.460872,-0.486178,-0.471026,-0.446043,-0.468770,-0.417030,-0.458293,-0.410099,-0.398010,-0.421221,-0.447816,-0.390918,-0.424283,-0.420576,-0.403329,-0.436694,-0.417513,-0.457648,-0.458293,-0.473767,-0.515513,-0.486339,-0.555809,-0.585950,-0.601907,-0.594009,-0.635111,-0.661545,-0.660417,-0.631243,-0.648167,-0.650263,-0.668476,-0.652519,-0.693299,-0.656549,-0.700391,-0.665414,-0.663641,-0.697006,-0.650263,-0.700068,-0.634144,-0.641236,-0.632049,-0.606259,-0.598523,-0.560483,-0.602391,-0.547105,-0.569187,-0.520510,-0.554358,-0.489724,-0.481503,-0.530342,-0.475862,-0.535983,-0.515835,-0.496493,-0.484243,-0.519704,-0.540980,-0.504875,-0.482632,-0.479408,-0.491980,-0.468770,-0.499072,-0.495526,-0.463290,-0.507454,-0.466513,-0.505197,-0.471026,-0.464418,-0.501651,-0.518414,-0.492303,-0.465224,-0.480053,-0.467319,-0.471994,-0.497461,-0.467319,-0.465063,-0.457326,-0.512289,-0.497783,-0.492625,-0.458293,-0.457487,-0.470543,-0.465063,-0.481826,-0.476507,-0.520993,-0.478602,-0.519543,-0.464579,-0.502780,-0.466352,-0.503424,-0.470865,-0.456842,-0.493109,-0.519543,-0.490691,-0.454102,-0.466997,-0.458293,-0.454747,-0.461033,-0.456359,-0.479730,-0.503747,-0.472799,-0.464901,-0.450234,-0.492303,-0.447171,-0.447332,-0.498428,-0.469898,-0.465063,-0.501490,-0.454102,-0.514546,-0.480697,-0.467642,-0.454263,-0.456520,-0.469253,-0.499395,-0.499717,-0.468931,-0.458454,-0.466674,-0.464418,-0.447655,-0.471026,-0.508582,-0.457003,-0.477635,-0.497299,-0.493270,-0.465707,-0.501329,-0.468125,-0.463934,-0.457809,-0.513418,-0.489240,-0.499717,-0.508099,-0.471026,-0.460227,-0.447977,-0.453457,-0.479892,-0.453941,-0.459744,-0.511483,-0.457971,-0.444431,-0.504714,-0.501812,-0.485211,-0.449911,-0.488595,-0.485694,-0.479086,-0.482148,-0.462323,-0.447332,-0.462000,-0.498750,-0.450395,-0.460549,-0.443786,-0.448300,-0.473767,-0.438951,-0.461839,-0.499717,-0.482309,-0.447494,-0.426379,-0.457165,-0.447494,-0.477796,-0.441691,-0.458615,-0.430892,-0.488595,-0.435244,-0.455392,-0.447010,-0.431536,-0.470704,-0.434760,-0.482954,-0.419931,-0.471671,-0.428152,-0.463128,-0.422671,-0.475701,-0.438467,-0.464740,-0.476184,-0.469253,-0.465385,-0.421060,-0.445237,-0.420576,-0.422510,-0.442175,-0.466030,-0.427346,-0.473444,-0.419770,-0.447171,-0.459582,-0.445882,-0.468770,-0.450395,-0.457809,-0.479086,-0.417997,-0.472638,-0.418481,-0.421382,-0.426379,-0.417513,-0.474250,-0.420415,-0.402523,-0.415096,-0.453296,-0.457326,-0.473283,-0.460549,-0.464579,-0.465869,-0.432342,-0.425250,-0.431375,-0.434599,-0.470382,-0.448783,-0.435566,-0.479086,-0.435244,-0.443303,-0.450395,-0.483276,-0.494882,-0.447816,-0.453619,-0.488273,-0.481665,-0.451040,-0.467642,-0.479569,-0.469092,-0.499234,-0.517286,-0.522605,-0.456520,-0.469415,-0.503424,-0.508582,-0.526635,-0.518253,-0.488595,-0.539852,-0.488273,-0.521960,-0.509227,-0.544365,-0.482148,-0.543075,-0.510355,-0.494398,-0.498428,-0.493109,-0.532276,-0.500684,-0.501168,-0.552263,-0.501490,-0.527118,-0.507293,-0.560967,-0.511000,-0.518092,-0.551779,-0.511322,-0.508260,-0.521638,-0.510516,-0.534855,-0.525184,-0.495688,-0.514062,-0.505842,-0.513095,-0.518414,-0.551135,-0.524539,-0.514707,-0.532921,-0.523411,-0.570477,-0.577730,-0.523572,-0.515030,-0.503424,-0.542753,-0.517931,-0.520026,-0.512612,-0.521155,-0.526635,-0.521960,-0.525023,-0.529052,-0.524539,-0.524056,-0.553714,-0.518092,-0.580631,-0.514707,-0.521316,-0.523733,-0.547266,-0.565964,-0.507132,-0.545816,-0.528730,-0.543075,-0.572894,-0.543881,-0.540013,-0.514707,-0.561128,-0.508905,-0.531793,-0.555970,-0.509710,-0.566769,-0.503263,-0.525668,-0.528247,-0.506326,-0.518898,-0.558549,-0.519381,-0.518092,-0.520026,-0.561289,-0.505842,-0.516480,-0.583533,-0.519220,-0.528085,-0.517770,-0.507454,-0.556615,-0.500845,-0.497299,-0.526151,-0.490046,-0.529214,-0.550812,-0.505359,-0.510355,-0.511000,-0.520671,-0.510678,-0.506003,-0.559355,-0.505036,-0.497461,-0.557098,-0.534533,-0.507937,-0.499234,-0.503747,-0.541141,-0.498589,-0.541141,-0.541141,-0.501651,-0.552263,-0.501007,-0.552746,-0.516964,-0.504553,-0.535016,-0.552585,-0.535661,-0.505359,-0.545010,-0.494720,-0.498911,-0.503908,-0.540819,-0.547427,-0.501329,-0.510033,-0.535661,-0.540980,-0.490852,-0.498428,-0.511645,-0.543398,-0.481826,-0.548556,-0.481342,-0.509066,-0.539852,-0.477957,-0.497944,-0.497138,-0.497299,-0.496655,-0.506970,-0.498105,-0.494398,-0.548878,-0.503908,-0.494882,-0.535339,-0.493753,-0.480375,-0.491658,-0.490368,-0.477635,-0.482954,-0.486822,-0.487467,-0.495043,-0.515352,-0.501812,-0.500684,-0.537918,-0.523411,-0.528408,-0.484243,-0.496816,-0.474895,-0.476023,-0.519704,-0.459905,-0.524378,-0.480375,-0.483438,-0.487628,-0.524701,-0.483760,-0.528247,-0.476345,-0.513579,-0.478763,-0.520187,-0.531148,-0.520993,-0.527441,-0.511322,-0.518414,-0.496171,-0.469092,-0.488434,-0.504714,-0.520671,-0.481987,-0.512451,-0.540174,-0.486339,-0.502296,-0.506809,-0.530987,-0.537273,-0.514546,-0.467319,-0.473605,-0.451201,-0.518414,-0.476023,-0.508260,-0.473928,-0.516803,-0.481503,-0.471832,-0.511000,-0.527924,-0.513740,-0.466030,-0.466997,-0.467964,-0.501812,-0.522605,-0.457165,-0.466191,-0.473605,-0.505681,-0.471671,-0.480053,-0.513579,-0.488112,-0.474411,-0.481503,-0.531954,-0.533888,-0.486339,-0.476023,-0.483760,-0.520510,-0.465063,-0.481020,-0.486016,-0.520832,-0.476990,-0.522444,-0.496171,-0.505359,-0.537112,-0.525023,-0.488273,-0.492141,-0.537756,-0.543559,-0.478602,-0.478924,-0.530664,-0.489240,-0.516480,-0.482954,-0.491174,-0.534372,-0.533404,-0.512289,-0.507937,-0.552908,-0.510678,-0.495204,-0.542592,-0.538401,-0.543720,-0.508743,-0.529858,-0.494076,-0.485533,-0.535983,-0.485211,-0.493431,-0.546138,-0.524056,-0.502457,-0.493592,-0.539529,-0.510355,-0.540013,-0.499717,-0.495043,-0.493914,-0.514868,-0.484727,-0.472155,-0.516480,-0.517447,-0.494237,-0.493431,-0.507615,-0.495204,-0.526312,-0.539529,-0.515352,-0.538724,-0.482470,-0.513095,-0.541625,-0.538240,-0.533243,-0.496655,-0.528408,-0.484566,-0.491336,-0.547589,-0.479730,-0.527279,-0.494882,-0.506164,-0.496977,-0.528408,-0.501812,-0.541464,-0.489724,-0.526151,-0.481665,-0.515030,-0.525184,-0.441530,-0.509872,-0.462161,-0.470543,-0.522444,-0.459744,-0.503263,-0.513257,-0.515835,-0.510355,-0.505359,-0.512773,-0.505359,-0.489885,-0.465063,-0.437178,-0.476668,-0.431053,-0.415902,-0.462967,-0.410260,-0.407681,-0.439596,-0.405908,-0.432665,-0.444270,-0.430569,-0.447171,-0.398816,-0.441207,-0.398494,-0.457165,-0.465063,-0.453941,-0.492625,-0.511645,-0.520349,-0.593365,-0.575151,-0.625601,-0.617703,-0.666059,-0.667993,-0.635434,-0.630115,-0.678792,-0.682016,-0.625924,-0.653970,-0.669121,-0.674601,-0.658322,-0.669121,-0.691526,-0.675085
 10:15:41.,-0.634950,-0.611901,-0.648328,-0.597878,-0.629309,-0.599812,-0.560644,-0.549684,-0.525506,-0.530503,-0.508260,-0.492141,-0.479408,-0.478763,-0.482954,-0.469898,-0.488434,-0.515997,-0.484566,-0.522766,-0.485855,-0.486178,-0.489401,-0.469576,-0.468609,-0.471994,-0.454425,-0.459099,-0.441207,-0.467964,-0.480214,-0.432020,-0.500845,-0.461839,-0.463451,-0.513901,-0.495526,-0.457326,-0.464418,-0.470221,-0.505359,-0.447977,-0.512934,-0.466836,-0.443786,-0.478441,-0.457971,-0.503908,-0.473283,-0.452490,-0.469898,-0.468770,-0.505359,-0.494559,-0.465063,-0.456681,-0.502457,-0.469898,-0.454263,-0.515191,-0.456842,-0.492786,-0.437500,-0.476829,-0.453457,-0.447332,-0.460227,-0.472799,-0.495526,-0.490852,-0.473605,-0.466836,-0.500201,-0.448461,-0.462161,-0.495526,-0.448783,-0.466674,-0.437984,-0.453780,-0.514062,-0.451040,-0.463934,-0.456520,-0.474734,-0.454747,-0.452329,-0.479086,-0.466674,-0.462161,-0.466352,-0.455714,-0.458293,-0.475056,-0.448622,-0.451040,-0.474089,-0.444592,-0.442658,-0.482148,-0.449428,-0.456842,-0.506970,-0.513740,-0.452007,-0.454586,-0.448300,-0.450556,-0.452490,-0.449105,-0.446688,-0.509066,-0.478763,-0.440240,-0.499234,-0.477796,-0.496655,-0.504391,-0.436372,-0.499878,-0.491336,-0.444270,-0.449105,-0.480375,-0.445721,-0.496010,-0.444592,-0.439273,-0.418158,-0.491497,-0.479247,-0.476345,-0.477957,-0.435888,-0.443948,-0.461355,-0.480536,-0.488434,-0.481020,-0.484243,-0.476023,-0.476990,-0.436211,-0.442175,-0.426540,-0.429763,-0.432020,-0.468770,-0.445559,-0.477957,-0.433954,-0.471349,-0.429280,-0.467964,-0.473444,-0.428958,-0.430892,-0.421221,-0.428152,-0.452652,-0.441691,-0.432987,-0.451684,-0.419287,-0.470382,-0.404135,-0.426862,-0.470865,-0.461517,-0.425895,-0.472799,-0.441369,-0.442013,-0.426540,-0.420737,-0.411550,-0.417030,-0.448300,-0.440885,-0.442013,-0.388984,-0.459744,-0.425895,-0.413645,-0.459421,-0.431214,-0.460549,-0.424283,-0.415096,-0.406069,-0.461194,-0.443303,-0.419770,-0.422833,-0.421382,-0.467319,-0.474895,-0.444270,-0.428152,-0.409938,-0.421221,-0.463290,-0.430731,-0.430408,-0.475378,-0.423477,-0.476507,-0.439112,-0.441852,-0.424928,-0.415902,-0.463128,-0.460388,-0.441369,-0.419770,-0.477957,-0.456681,-0.444915,-0.451684,-0.480697,-0.501329,-0.455714,-0.472155,-0.482793,-0.467642,-0.511967,-0.454102,-0.516803,-0.455392,-0.471349,-0.520349,-0.475217,-0.476829,-0.519543,-0.486339,-0.496655,-0.479892,-0.485211,-0.486016,-0.492303,-0.547589,-0.539852,-0.505520,-0.499878,-0.513095,-0.554036,-0.506970,-0.548072,-0.504714,-0.487951,-0.548878,-0.520832,-0.510678,-0.544526,-0.516480,-0.508743,-0.510033,-0.518092,-0.528569,-0.505681,-0.564674,-0.505197,-0.548072,-0.517286,-0.510033,-0.550168,-0.508260,-0.559516,-0.527924,-0.525990,-0.548072,-0.555970,-0.569832,-0.518898,-0.522605,-0.529536,-0.516480,-0.561773,-0.546622,-0.531954,-0.506326,-0.540335,-0.530181,-0.534694,-0.538401,-0.537273,-0.553391,-0.514385,-0.517286,-0.555970,-0.558710,-0.508421,-0.566769,-0.530342,-0.545171,-0.557582,-0.489724,-0.559194,-0.504391,-0.556615,-0.532276,-0.505520,-0.516964,-0.556776,-0.522444,-0.523411,-0.518092,-0.557904,-0.508743,-0.515352,-0.557098,-0.551296,-0.515191,-0.536145,-0.515030,-0.550651,-0.516480,-0.520832,-0.511483,-0.570315,-0.526957,-0.516319,-0.506164,-0.512612,-0.523572,-0.546944,-0.545171,-0.511645,-0.500684,-0.507132,-0.499717,-0.539046,-0.545493,-0.545332,-0.518253,-0.502135,-0.547589,-0.557743,-0.548556,-0.542914,-0.491819,-0.552908,-0.506164,-0.493270,-0.550812,-0.475217,-0.566931,-0.512773,-0.478441,-0.565964,-0.497622,-0.552102,-0.530342,-0.536628,-0.502941,-0.514062,-0.513901,-0.549523,-0.535339,-0.535177,-0.506970,-0.488918,-0.534855,-0.514062,-0.525184,-0.541786,-0.528408,-0.531954,-0.521316,-0.504714,-0.502135,-0.506003,-0.548556,-0.500039,-0.501329,-0.486500,-0.548717,-0.482793,-0.479730,-0.470704,-0.482793,-0.490368,-0.479247,-0.505681,-0.537434,-0.512773,-0.514546,-0.530342,-0.517125,-0.495204,-0.474895,-0.497138,-0.492141,-0.491819,-0.494237,-0.463451,-0.480375,-0.471188,-0.481342,-0.515997,-0.522444,-0.524539,-0.530664,-0.540658,-0.498428,-0.493431,-0.488273,-0.492786,-0.495365,-0.528085,-0.520349,-0.469253,-0.527118,-0.480536,-0.512934,-0.494882,-0.494720,-0.480859,-0.514224,-0.486178,-0.489401,-0.501168,-0.476990,-0.512289,-0.480859,-0.532921,-0.505197,-0.505197,-0.491336,-0.445721,-0.509227,-0.483599,-0.509872,-0.479086,-0.491174,-0.518576,-0.481826,-0.491336,-0.535016,-0.495043,-0.471510,-0.512128,-0.534049,-0.470704,-0.471026,-0.472316,-0.512128,-0.481020,-0.468286,-0.518898,-0.542270,-0.520671,-0.487790,-0.497944,-0.491013,-0.534855,-0.465385,-0.530342,-0.491980,-0.472638,-0.484888,-0.449911,-0.503908,-0.500684,-0.454102,-0.514224,-0.510194,-0.525829,-0.526635,-0.511000,-0.510355,-0.500362,-0.495849,-0.516480,-0.473122,-0.537918,-0.484727,-0.490530,-0.470382,-0.515191,-0.510033,-0.460066,-0.467158,-0.513579,-0.487306,-0.488918,-0.521316,-0.527602,-0.488757,-0.525829,-0.485049,-0.520671,-0.487145,-0.521638,-0.483760,-0.509710,-0.503102,-0.493753,-0.475217,-0.489885,-0.516641,-0.520671,-0.554520,-0.526474,-0.484888,-0.491497,-0.511322,-0.547266,-0.486016,-0.545332,-0.482793,-0.480697,-0.500039,-0.472477,-0.494559,-0.523572,-0.526151,-0.503747,-0.534855,-0.491174,-0.527602,-0.546460,-0.541786,-0.505520,-0.491980,-0.542592,-0.485211,-0.494720,-0.488434,-0.540174,-0.489079,-0.530987,-0.509549,-0.539368,-0.485533,-0.494237,-0.518253,-0.511483,-0.502457,-0.538885,-0.501007,-0.494882,-0.543237,-0.525506,-0.541141,-0.478441,-0.521316,-0.509066,-0.542914,-0.520349,-0.535177,-0.544848,-0.487306,-0.519381,-0.527118,-0.558871,-0.505520,-0.493592,-0.500845,-0.505359,-0.518898,-0.505842,-0.490368,-0.537273,-0.497461,-0.530181,-0.541141,-0.486339,-0.499234,-0.540658,-0.536789,-0.485855,-0.530664,-0.538885,-0.490852,-0.481503,-0.517286,-0.535339,-0.475540,-0.491013,-0.455069,-0.462484,-0.465063,-0.519381,-0.467642,-0.482632,-0.459421,-0.508421,-0.500684,-0.515030,-0.497783,-0.468931,-0.444754,-0.453296,-0.408326,-0.425250,-0.427829,-0.453941,-0.471994,-0.392208,-0.456520,-0.452652,-0.387050,-0.441046,-0.391885,-0.448783,-0.426379,-0.428796,-0.448461,-0.451684,-0.505197,-0.544204,-0.542753,-0.558710,-0.610450,-0.559839,-0.599167,-0.617865,-0.617220,-0.657355,-0.670894,-0.636240,-0.697973,-0.669605,-0.651068,-0.645749,-0.654292,-0.651230,-0.634950,-0.691203,-0.691687,-0.644460,-0.670572,-0.659611,-0.637690,-0.631565,-0.625601,-0.611901,-0.546944,-0.526151,-0.544848,-0.524701,-0.536628,-0.492947,-0.468125,-0.509549,-0.455069,-0.484405,-0.523572,-0.460872,-0.539529,-0.496977,-0.513257,-0.521316,-0.517608,-0.505036,-0.459582,-0.512289,-0.501490,-0.453296,-0.509388,-0.450878,-0.482470,-0.476507,-0.446204,-0.457809,-0.467480,-0.510678,-0.515674,-0.479408,-0.513901,-0.491013,-0.526474,-0.464579,-0.477313,-0.481342,-0.483599,-0.470221,-0.450717,-0.474572,-0.453619,-0.493431,-0.481020,-0.476668,-0.463451,-0.457809,-0.464901,-0.459260,-0.509066,-0.469737,-0.456359,-0.454747,-0.468770,-0.491013,-0.496493,-0.465869,-0.459582,-0.493431,-0.484405,-0.453135,-0.474734,-0.442336,-0.467158,-0.453296,-0.490852,-0.483921,-0.491819,-0.459260,-0.495365,-0.464418,-0.444109,-0.418803,-0.475862,-0.493109,-0.469415,-0.473605,-0.451684,-0.460066,-0.454102,-0.475056,-0.457326,-0.483599,-0.441369,-0.475701,-0.471026,-0.451684,-0.451362,-0.491336,-0.440724,-0.459421,-0.436211,-0.452652,-0.480697,-0.489724,-0.466191,-0.448944,-0.459905,-0.501007,-0.477151,-0.461355,-0.469737,-0.497461,-0.443142,-0.445398,-0.441207,-0.485372,-0.438467,-0.473283,-0.485694,-0.490691,-0.426379,-0.497783,-0.441369,-0.432181,-0.448138,-0.452490,-0.474895,-0.447655,-0.481342,-0.442658,-0.482470,-0.478602,-0.482632,-0.407681,-0.432342,-0.472155,-0.437500,-0.450717,-0.444592,-0.463612,-0.442013,-0.468931,-0.452974,-0.481020,-0.441530,-0.480536,-0.422510,-0.432826,-0.423477,-0.476345,-0.428958,-0.405747,-0.440402,-0.435405,-0.439918,-0.462161,-0.433954,-0.422188,-0.422833,-0.447655,-0.421221,-0.435082,-0.435566,-0.476345,-0.404780,-0.409777,-0.425089,-0.414612,-0.411389,-0.404458,-0.404941,-0.430892,-0.473122,-0.468770,-0.422510,-0.462645,-0.419770,-0.416063,-0.425250,-0.430731,-0.455553,-0.416708,-0.433632,-0.447655,-0.458776,-0.453619,-0.465707,-0.407198,-0.410744,-0.407520,-0.449267,-0.459905,-0.416063,-0.419931,-0.410099,-0.453619,-0.469092,-0.397527,-0.423638,-0.457809,-0.433954,-0.446688,-0.472961,-0.415418,-0.432504,-0.475056,-0.467158,-0.422994,-0.431053,-0.422510,-0.438467,-0.439757,-0.431536,-0.434921,-0.412678,-0.442497,-0.458454,-0.463612,-0.470704,-0.449105,-0.448300,-0.467803,-0.446043,-0.503908,-0.463612,-0.459260,-0.511483,-0.493592,-0.478441,-0.499395,-0.499556,-0.497944,-0.484566,-0.527924,-0.487467,-0.465546,-0.520187,-0.519381,-0.525023,-0.494559,-0.478280,-0.529697,-0.499878,-0.534694,-0.512612,-0.496655,-0.500362,-0.517286,-0.526151,-0.455875,-0.497299,-0.511806,-0.537918,-0.543559,-0.517447,-0.548233,-0.556293,-0.555648,-0.509066,-0.497461,-0.504230,-0.495526,-0.513740,-0.533888,-0.506487,-0.555164,-0.492464,-0.564352,-0.499556,-0.543075,-0.569671,-0.548556,-0.507293,-0.523895,-0.565158,-0.562901,-0.522283,-0.536628,-0.525668,-0.514385,-0.558871,-0.558388,-0.548878,-0.486822,-0.493592,-0.494076,-0.521155,-0.515997,-0.567092,-0.556776,-0.560806,-0.553069,-0.517608,-0.548072,-0.506970,-0.499878,-0.532276,-0.564674,-0.523572,-0.554197,-0.495688,-0.551618,-0.492786,-0.539691,-0.564513,-0.542270,-0.549684,-0.504553,-0.536628,-0.538240,-0.502296,-0.503102,-0.511322,-0.496171,-0.541786,-0.536950,-0.482793,-0.500201,-0.496816,-0.492786,-0.495526,-0.526796,-0.556937,-0.522605,-0.527441,-0.522928,-0.545171,-0.508260,-0.538562,-0.512934,-0.501974,-0.499717,-0.478602,-0.499234,-0.488757,-0.537434,-0.526796,-0.531470,-0.516319,-0.512934,-0.497783,-0.497622,-0.508743,-0.502457,-0.504391,-0.502135,-0.516319,-0.529858,-0.480536,-0.543559,-0.478602,-0.496816,-0.496332,-0.548395,-0.500845,-0.542270,-0.557743,-0.552424,-0.521799,-0.504875,-0.507776,-0.540819,-0.501490,-0.502941,-0.483921,-0.494882,-0.491013,-0.470704,-0.489885,-0.542753
 10:15:42.,-0.498589,-0.539368,-0.539852,-0.531954,-0.484888,-0.552746,-0.531309,-0.531148,-0.509872,-0.527924,-0.492303,-0.493109,-0.522928,-0.494559,-0.466674,-0.494559,-0.531309,-0.528247,-0.542108,-0.508905,-0.496977,-0.495688,-0.535339,-0.529697,-0.499878,-0.505197,-0.492303,-0.520349,-0.494076,-0.508905,-0.500039,-0.522766,-0.475378,-0.503908,-0.543075,-0.502780,-0.493431,-0.485533,-0.487306,-0.530181,-0.517608,-0.502618,-0.493592,-0.490368,-0.518737,-0.476668,-0.476345,-0.535661,-0.475378,-0.486822,-0.486500,-0.520187,-0.534694,-0.496655,-0.542431,-0.503908,-0.488757,-0.535339,-0.532437,-0.494559,-0.495526,-0.522283,-0.489401,-0.472638,-0.504875,-0.500845,-0.475540,-0.531954,-0.482470,-0.498750,-0.538724,-0.536145,-0.501490,-0.546622,-0.505842,-0.481826,-0.479569,-0.485694,-0.476345,-0.511967,-0.486661,-0.481181,-0.522928,-0.542914,-0.499234,-0.503747,-0.493431,-0.495526,-0.499072,-0.498911,-0.510355,-0.497299,-0.498911,-0.484405,-0.539852,-0.490046,-0.476023,-0.491174,-0.527763,-0.519704,-0.529697,-0.547427,-0.534694,-0.519543,-0.514062,-0.521477,-0.525023,-0.542431,-0.530826,-0.544848,-0.472155,-0.485049,-0.531470,-0.518898,-0.481987,-0.493270,-0.497622,-0.543881,-0.530664,-0.496171,-0.488918,-0.540980,-0.508582,-0.480053,-0.510516,-0.530987,-0.548072,-0.488595,-0.473928,-0.500362,-0.471349,-0.474411,-0.523733,-0.515352,-0.486016,-0.480053,-0.536306,-0.527441,-0.494882,-0.519059,-0.478924,-0.481665,-0.480536,-0.528569,-0.468286,-0.463773,-0.464901,-0.489885,-0.488434,-0.507776,-0.503908,-0.519059,-0.532599,-0.508421,-0.522605,-0.486339,-0.520349,-0.470704,-0.486339,-0.500201,-0.524217,-0.536950,-0.471510,-0.496655,-0.468770,-0.522605,-0.486822,-0.476345,-0.537756,-0.494076,-0.496332,-0.544043,-0.539207,-0.492786,-0.498105,-0.481181,-0.504553,-0.515513,-0.516158,-0.490852,-0.471832,-0.543720,-0.522444,-0.536467,-0.495849,-0.498428,-0.543237,-0.497783,-0.541302,-0.509710,-0.506970,-0.531631,-0.500845,-0.538562,-0.508905,-0.546299,-0.531631,-0.532115,-0.495849,-0.533404,-0.562579,-0.502941,-0.550006,-0.504230,-0.487467,-0.498750,-0.506648,-0.495365,-0.551457,-0.533082,-0.544687,-0.508260,-0.534533,-0.551618,-0.484405,-0.539046,-0.535339,-0.542592,-0.551135,-0.491658,-0.503424,-0.557098,-0.510033,-0.498105,-0.528408,-0.496332,-0.490368,-0.526796,-0.535822,-0.496816,-0.490368,-0.534372,-0.499072,-0.546299,-0.534855,-0.502941,-0.543398,-0.535822,-0.533404,-0.504230,-0.495688,-0.501329,-0.510839,-0.512773,-0.488757,-0.529697,-0.522928,-0.492141,-0.478441,-0.529214,-0.497299,-0.481987,-0.502296,-0.498428,-0.488757,-0.484405,-0.501974,-0.481181,-0.470382,-0.519381,-0.470221,-0.450717,-0.470221,-0.463290,-0.458454,-0.490046,-0.447816,-0.518576,-0.454747,-0.501329,-0.438951,-0.434277,-0.486661,-0.426379,-0.410583,-0.470221,-0.412033,-0.395593,-0.388178,-0.373833,-0.427990,-0.389629,-0.396721,-0.400428,-0.448138,-0.423316,-0.449267,-0.466836,-0.528730,-0.533727,-0.535661,-0.567253,-0.565964,-0.618832,-0.642042,-0.645266,-0.660417,-0.666220,-0.624151,-0.697812,-0.687335,-0.708289,-0.653164,-0.652358,-0.668315,-0.663157,-0.665736,-0.696039,-0.679114,-0.686368,-0.613352,-0.598684,-0.648812,-0.575957,-0.573539,-0.578052,-0.532921,-0.532599,-0.552424,-0.510355,-0.527924,-0.504230,-0.506487,-0.517770,-0.489079,-0.486500,-0.520993,-0.480375,-0.516964,-0.519865,-0.518737,-0.472638,-0.464740,-0.482793,-0.465869,-0.471671,-0.509066,-0.484727,-0.470059,-0.512451,-0.475056,-0.495688,-0.506003,-0.474411,-0.495849,-0.456036,-0.506326,-0.458454,-0.458615,-0.496332,-0.463612,-0.467158,-0.489563,-0.462000,-0.502618,-0.450234,-0.458615,-0.453296,-0.467642,-0.487628,-0.465707,-0.515674,-0.434277,-0.466997,-0.443303,-0.433471,-0.503747,-0.472638,-0.466030,-0.475378,-0.460066,-0.460711,-0.462484,-0.458938,-0.455230,-0.454747,-0.459421,-0.451362,-0.447010,-0.495365,-0.438467,-0.502618,-0.465063,-0.491013,-0.470543,-0.496655,-0.454747,-0.453619,-0.474250,-0.460549,-0.477957,-0.474734,-0.457003,-0.500362,-0.455230,-0.456198,-0.481342,-0.483921,-0.463290,-0.445882,-0.512451,-0.454586,-0.459099,-0.480859,-0.498750,-0.464257,-0.488434,-0.449428,-0.480375,-0.441046,-0.491174,-0.493270,-0.488918,-0.491336,-0.439112,-0.498105,-0.504230,-0.451040,-0.465385,-0.435727,-0.457487,-0.460549,-0.490852,-0.472316,-0.454908,-0.449750,-0.456681,-0.481020,-0.497138,-0.448138,-0.485049,-0.439112,-0.484566,-0.486500,-0.452007,-0.454425,-0.488918,-0.471832,-0.499072,-0.449105,-0.450073,-0.449589,-0.462484,-0.448622,-0.442336,-0.440885,-0.474250,-0.489563,-0.483599,-0.460711,-0.449589,-0.492141,-0.456842,-0.444915,-0.490046,-0.489079,-0.490852,-0.453619,-0.437178,-0.448622,-0.490530,-0.436856,-0.440724,-0.439757,-0.472638,-0.428958,-0.459744,-0.439112,-0.440563,-0.447977,-0.431053,-0.457809,-0.435566,-0.432181,-0.433148,-0.431536,-0.428474,-0.481181,-0.410260,-0.467803,-0.434599,-0.404458,-0.460388,-0.414129,-0.461517,-0.411711,-0.452007,-0.430247,-0.456359,-0.433793,-0.422510,-0.418642,-0.421060,-0.415579,-0.416869,-0.474895,-0.442980,-0.490691,-0.461678,-0.427668,-0.419287,-0.470382,-0.445237,-0.465869,-0.461517,-0.466513,-0.471832,-0.423961,-0.477313,-0.442980,-0.417675,-0.415257,-0.418319,-0.466352,-0.419125,-0.420415,-0.428313,-0.453296,-0.490530,-0.443948,-0.467964,-0.445398,-0.487628,-0.447171,-0.444270,-0.451040,-0.442819,-0.434277,-0.452652,-0.516803,-0.444109,-0.483599,-0.501812,-0.459421,-0.461033,-0.453941,-0.508099,-0.498911,-0.467642,-0.480053,-0.481503,-0.470865,-0.478924,-0.468931,-0.527924,-0.475701,-0.473444,-0.474734,-0.502457,-0.495043,-0.532760,-0.526151,-0.506487,-0.503908,-0.532599,-0.496010,-0.497622,-0.491497,-0.537112,-0.545493,-0.538724,-0.514385,-0.521155,-0.500362,-0.511161,-0.539046,-0.532437,-0.504230,-0.556776,-0.518576,-0.536789,-0.518092,-0.508582,-0.502618,-0.512934,-0.508421,-0.522928,-0.514062,-0.501812,-0.548233,-0.547589,-0.509388,-0.510194,-0.565802,-0.508743,-0.523733,-0.522444,-0.515997,-0.517447,-0.548717,-0.518576,-0.515191,-0.543075,-0.511645,-0.492947,-0.499556,-0.507293,-0.497783,-0.569510,-0.508260,-0.518576,-0.524701,-0.508421,-0.550490,-0.555325,-0.555164,-0.519704,-0.526474,-0.568381,-0.512451,-0.544848,-0.514062,-0.538401,-0.477957,-0.519704,-0.494720,-0.514385,-0.511322,-0.541302,-0.562579,-0.562901,-0.555164,-0.557904,-0.507776,-0.547427,-0.560000,-0.532599,-0.504391,-0.548717,-0.535339,-0.511483,-0.516803,-0.492786,-0.509710,-0.538885,-0.506326,-0.505681,-0.512934,-0.503263,-0.520187,-0.505197,-0.544848,-0.542592,-0.556454,-0.530664,-0.498105,-0.525668,-0.535339,-0.502941,-0.505520,-0.515191,-0.503263,-0.548717,-0.552424,-0.530342,-0.514546,-0.518898,-0.505842,-0.498589,-0.539046,-0.542431,-0.533888,-0.501490,-0.494237,-0.489724,-0.496332,-0.486661,-0.570638,-0.501168,-0.513579,-0.552585,-0.497461,-0.518898,-0.545332,-0.532599,-0.546460,-0.495688,-0.534049,-0.544365,-0.487628,-0.507132,-0.486661,-0.496493,-0.500201,-0.495849,-0.542270,-0.500201,-0.507132,-0.558710,-0.491497,-0.509872,-0.522283,-0.496010,-0.497461,-0.498589,-0.523895,-0.478602,-0.486661,-0.528891,-0.530664,-0.492303,-0.494559,-0.502780,-0.492786,-0.549845,-0.536628,-0.500845,-0.524056,-0.529536,-0.544687,-0.537273,-0.530181,-0.538724,-0.461517,-0.538240,-0.534210,-0.525506,-0.540658,-0.477635,-0.491819,-0.494237,-0.489240,-0.538562,-0.492303,-0.532437,-0.509549,-0.484082,-0.488595,-0.527602,-0.526474,-0.499072,-0.486500,-0.483276,-0.539368,-0.486984,-0.513257,-0.538724,-0.537595,-0.492464,-0.494237,-0.488918,-0.510678,-0.534049,-0.476507,-0.547750,-0.521960,-0.532437,-0.479408,-0.467803,-0.491174,-0.476829,-0.526957,-0.512128,-0.529052,-0.483760,-0.497138,-0.524378,-0.489563,-0.487467,-0.543559,-0.498266,-0.483438,-0.537434,-0.520510,-0.490852,-0.497944,-0.534049,-0.496493,-0.495688,-0.493592,-0.504391,-0.546944,-0.491658,-0.511483,-0.494559,-0.489079,-0.489724,-0.481181,-0.532276,-0.504553,-0.480536,-0.552746,-0.476829,-0.494076,-0.505842,-0.505359,-0.536306,-0.528408,-0.510355,-0.501329,-0.515835,-0.490530,-0.502618,-0.489885,-0.488918,-0.514385,-0.483760,-0.479569,-0.525506,-0.484888,-0.481987,-0.533404,-0.489563,-0.492141,-0.523250,-0.496332,-0.533888,-0.554681,-0.496655,-0.492303,-0.501974,-0.526474,-0.476990,-0.517770,-0.523895,-0.498750,-0.488273,-0.499234,-0.490046,-0.494398,-0.542914,-0.531954,-0.531470,-0.508743,-0.487145,-0.532115,-0.530503,-0.478924,-0.495849,-0.469092,-0.478441,-0.528247,-0.522283,-0.525506,-0.502941,-0.524862,-0.496332,-0.505036,-0.507937,-0.533243,-0.496816,-0.504391,-0.490530,-0.543237,-0.489401,-0.525990,-0.497622,-0.480375,-0.523572,-0.502135,-0.494398,-0.534533,-0.540174,-0.534855,-0.506164,-0.527924,-0.531148,-0.489885,-0.532437,-0.491658,-0.532599,-0.514546,-0.522122,-0.478924,-0.482148,-0.525345,-0.488112,-0.512451,-0.495688,-0.490530,-0.490207,-0.524217,-0.493753,-0.532599,-0.501490,-0.537595,-0.530181,-0.497944,-0.520510,-0.518253,-0.490691,-0.466997,-0.543075,-0.486178,-0.488112,-0.553875,-0.512612,-0.491658,-0.492786,-0.526151,-0.545654,-0.518092,-0.486339,-0.494882,-0.478118,-0.486500,-0.465707,-0.493109,-0.487145,-0.475378,-0.521477,-0.519059,-0.484888,-0.498589,-0.535177,-0.490046,-0.504714,-0.494559,-0.533082,-0.501168,-0.497138,-0.538240,-0.472155,-0.483438,-0.476990,-0.467803,-0.491013,-0.480053,-0.489240,-0.492625,-0.530342,-0.496655,-0.485372,-0.469092,-0.487306,-0.478118,-0.468125,-0.526312,-0.467158,-0.489240,-0.462806,-0.503424,-0.482793,-0.464096,-0.509388,-0.480375,-0.468770,-0.533404,-0.506003,-0.513740,-0.522122,-0.482793,-0.516480,-0.482309,-0.513257,-0.517286,-0.466352,-0.516803,-0.474895,-0.476829,-0.488918,-0.525023,-0.514546,-0.519059,-0.477635,-0.485211,-0.492786,-0.478118,-0.483438,-0.490207,-0.471510,-0.523250,-0.473283,-0.481503,-0.473283,-0.468609,-0.497944,-0.487628,-0.525506,-0.514546,-0.482632,-0.493914,-0.484727,-0.533566,-0.494559,-0.484566,-0.520026,-0.532921,-0.485694,-0.497461,-0.535983,-0.529858,-0.493592,-0.493431,-0.494076,-0.493270,-0.528730,-0.499234,-0.519059,-0.511806,-0.536950,-0.512773,-0.499717,-0.523250,-0.525023,-0.528085,-0.521638,-0.523250,-0.491658,-0.512934
 10:15:43.,-0.495849,-0.530987,-0.495849,-0.522766,-0.495688,-0.545816,-0.501651,-0.490207,-0.498589,-0.523411,-0.491174,-0.511161,-0.493431,-0.542108,-0.491174,-0.483921,-0.496010,-0.479408,-0.527763,-0.491497,-0.539691,-0.495688,-0.492141,-0.501007,-0.509066,-0.492947,-0.502941,-0.486984,-0.499234,-0.482470,-0.470865,-0.527763,-0.484082,-0.489563,-0.490852,-0.506326,-0.544043,-0.546138,-0.507615,-0.518092,-0.470865,-0.507454,-0.520671,-0.516964,-0.491658,-0.475378,-0.445237,-0.497622,-0.511161,-0.479086,-0.462806,-0.464096,-0.464579,-0.494237,-0.468447,-0.440240,-0.417030,-0.431214,-0.464418,-0.396076,-0.394787,-0.431375,-0.390273,-0.426217,-0.373833,-0.425734,-0.410744,-0.406714,-0.424928,-0.477796,-0.491174,-0.533404,-0.570477,-0.548395,-0.566286,-0.582888,-0.603680,-0.621894,-0.615930,-0.668799,-0.625601,-0.639947,-0.649940,-0.651391,-0.711996,-0.676535,-0.666542,-0.717315,-0.666220,-0.665414,-0.660739,-0.651391,-0.659611,-0.630598,-0.615447,-0.614319,-0.571605,-0.617220,-0.555648,-0.575473,-0.537595,-0.513901,-0.523733,-0.504875,-0.535822,-0.553069,-0.542914,-0.553714,-0.486984,-0.481665,-0.482470,-0.471188,-0.468447,-0.515513,-0.475056,-0.475056,-0.472316,-0.471832,-0.508260,-0.479408,-0.471026,-0.467158,-0.512934,-0.469253,-0.477313,-0.464257,-0.525990,-0.504391,-0.468609,-0.468609,-0.451846,-0.465869,-0.457487,-0.497783,-0.480053,-0.476184,-0.479408,-0.468931,-0.503585,-0.499556,-0.458454,-0.470221,-0.468609,-0.452490,-0.463451,-0.441691,-0.471832,-0.474895,-0.468931,-0.467964,-0.463934,-0.458132,-0.459260,-0.498911,-0.452490,-0.468286,-0.502780,-0.455230,-0.456036,-0.492141,-0.486822,-0.453619,-0.452813,-0.492786,-0.437823,-0.488595,-0.454263,-0.483276,-0.470543,-0.465385,-0.505520,-0.500039,-0.454263,-0.475378,-0.449428,-0.460711,-0.503424,-0.449589,-0.466030,-0.456842,-0.485694,-0.510355,-0.466674,-0.496655,-0.465869,-0.453296,-0.461839,-0.458454,-0.460227,-0.454747,-0.461678,-0.463128,-0.460388,-0.452490,-0.452168,-0.443303,-0.451201,-0.449267,-0.432987,-0.449911,-0.449750,-0.447171,-0.496010,-0.492786,-0.457165,-0.491013,-0.479408,-0.457003,-0.450556,-0.500523,-0.499234,-0.461839,-0.449428,-0.456359,-0.488595,-0.489401,-0.448300,-0.448944,-0.480536,-0.456520,-0.475056,-0.501329,-0.497622,-0.451362,-0.443786,-0.460549,-0.471671,-0.471671,-0.463290,-0.425250,-0.482954,-0.495043,-0.475540,-0.457003,-0.443625,-0.460711,-0.457487,-0.477151,-0.438145,-0.480697,-0.438306,-0.459099,-0.474089,-0.473122,-0.439918,-0.432181,-0.426540,-0.431536,-0.440563,-0.476507,-0.458938,-0.472155,-0.492947,-0.433309,-0.440402,-0.440240,-0.428796,-0.430086,-0.434438,-0.421060,-0.468125,-0.441691,-0.463934,-0.424283,-0.418158,-0.446688,-0.427668,-0.423800,-0.433148,-0.417030,-0.454747,-0.429280,-0.423800,-0.432181,-0.424444,-0.481503,-0.425573,-0.418642,-0.436856,-0.453457,-0.411550,-0.451362,-0.461194,-0.466191,-0.421543,-0.469576,-0.433471,-0.481181,-0.426862,-0.421221,-0.460227,-0.458938,-0.422027,-0.434921,-0.419287,-0.432181,-0.420254,-0.478280,-0.431536,-0.436533,-0.442658,-0.435244,-0.492625,-0.428152,-0.471994,-0.453619,-0.474250,-0.476990,-0.478602,-0.451040,-0.488434,-0.425089,-0.435566,-0.442819,-0.466513,-0.486500,-0.484888,-0.492786,-0.465224,-0.521799,-0.484888,-0.464901,-0.473928,-0.476345,-0.504553,-0.463128,-0.518576,-0.486661,-0.505197,-0.485211,-0.466836,-0.520993,-0.491336,-0.480375,-0.542108,-0.473928,-0.505520,-0.495204,-0.483599,-0.535339,-0.501168,-0.483760,-0.545010,-0.500845,-0.490852,-0.536950,-0.467319,-0.496655,-0.483599,-0.512128,-0.500362,-0.525668,-0.498589,-0.516158,-0.510033,-0.509066,-0.558871,-0.543237,-0.549523,-0.528247,-0.499717,-0.498750,-0.500845,-0.506809,-0.485372,-0.530342,-0.536145,-0.499072,-0.509549,-0.503585,-0.546138,-0.550490,-0.544204,-0.503747,-0.545332,-0.510033,-0.521155,-0.522444,-0.538240,-0.558066,-0.517608,-0.504230,-0.556293,-0.498428,-0.540658,-0.493109,-0.502618,-0.508743,-0.549039,-0.531148,-0.505681,-0.504553,-0.504230,-0.504391,-0.547266,-0.491980,-0.495043,-0.543559,-0.484888,-0.515352,-0.504230,-0.513901,-0.549845,-0.509227,-0.519220,-0.535661,-0.512934,-0.497944,-0.530664,-0.510194,-0.537112,-0.556293,-0.485049,-0.501812,-0.536306,-0.535500,-0.549200,-0.502135,-0.504230,-0.542592,-0.511322,-0.545816,-0.549200,-0.544043,-0.525506,-0.505842,-0.504875,-0.493592,-0.529375,-0.506326,-0.522766,-0.488918,-0.484405,-0.506648,-0.496816,-0.558710,-0.512773,-0.505842,-0.516158,-0.537918,-0.543881,-0.497138,-0.505036,-0.525506,-0.520510,-0.548233,-0.532437,-0.532599,-0.559677,-0.529214,-0.503102,-0.517608,-0.497299,-0.502135,-0.505359,-0.520671,-0.516641,-0.508905,-0.544204,-0.503102,-0.541141,-0.498589,-0.524056,-0.487145,-0.481826,-0.474572,-0.524378,-0.492625,-0.533082,-0.534049,-0.538240,-0.495043,-0.497138,-0.489885,-0.506970,-0.496655,-0.500845,-0.508421,-0.524217,-0.486822,-0.493270,-0.479408,-0.511000,-0.520187,-0.494559,-0.507615,-0.501007,-0.504714,-0.501329,-0.508743,-0.491658,-0.534533,-0.497138,-0.527279,-0.472477,-0.491336,-0.512773,-0.524701,-0.499072,-0.477474,-0.492141,-0.492947,-0.500684,-0.528569,-0.532599,-0.530503,-0.494076,-0.531631,-0.488918,-0.496655,-0.493753,-0.515191,-0.498589,-0.510839,-0.482793,-0.464257,-0.485855,-0.490368,-0.478441,-0.496332,-0.542108,-0.485533,-0.481826,-0.531470,-0.481342,-0.491336,-0.478441,-0.527602,-0.508743,-0.497461,-0.526957,-0.470865,-0.534372,-0.519865,-0.534049,-0.492786,-0.529697,-0.506164,-0.532437,-0.498428,-0.486661,-0.524701,-0.517608,-0.485533,-0.486178,-0.487790,-0.527118,-0.490368,-0.512612,-0.480697,-0.521155,-0.483599,-0.531148,-0.485694,-0.542270,-0.515997,-0.502135,-0.533566,-0.486661,-0.533566,-0.517286,-0.489724,-0.512612,-0.488918,-0.529052,-0.520993,-0.485533,-0.540174,-0.486822,-0.552908,-0.490691,-0.504069,-0.542592,-0.534210,-0.496655,-0.532115,-0.492947,-0.489079,-0.480214,-0.524217,-0.475540,-0.481020,-0.511000,-0.487467,-0.527924,-0.528408,-0.519381,-0.491819,-0.504069,-0.533243,-0.489724,-0.517286,-0.529052,-0.536467,-0.489401,-0.484405,-0.489240,-0.508582,-0.491497,-0.520349,-0.506809,-0.493592,-0.483760,-0.493431,-0.511000,-0.487467,-0.511322,-0.493753,-0.488273,-0.479247,-0.482470,-0.496977,-0.481020,-0.506648,-0.523733,-0.519543,-0.525506,-0.526635,-0.527924,-0.494237,-0.485533,-0.507615,-0.532276,-0.496816,-0.496977,-0.524701,-0.525345,-0.486178,-0.490852,-0.483760,-0.479086,-0.483760,-0.480859,-0.505842,-0.507132,-0.506164,-0.537918,-0.523733,-0.499878,-0.496332,-0.542270,-0.487790,-0.526957,-0.511645,-0.469092,-0.476829,-0.515513,-0.516641,-0.495526,-0.514062,-0.488757,-0.548556,-0.528247,-0.490530,-0.525345,-0.481503,-0.485855,-0.495043,-0.489724,-0.490530,-0.543720,-0.505197,-0.483921,-0.524862,-0.526796,-0.508743,-0.488595,-0.489240,-0.499717,-0.548395,-0.500523,-0.527118,-0.532921,-0.495526,-0.530181,-0.492786,-0.480859,-0.484888,-0.484405,-0.503102,-0.489563,-0.479730,-0.482954,-0.496171,-0.477313,-0.503263,-0.485049,-0.514062,-0.481020,-0.489401,-0.537756,-0.487145,-0.540013,-0.499878,-0.498105,-0.482309,-0.496655,-0.489563,-0.519704,-0.488112,-0.482470,-0.476668,-0.484405,-0.525829,-0.541141,-0.481826,-0.487951,-0.491336,-0.528085,-0.508260,-0.485211,-0.475701,-0.534694,-0.466836,-0.479086,-0.541947,-0.468286,-0.496493,-0.492947,-0.522122,-0.533727,-0.475540,-0.498105,-0.480859,-0.528569,-0.505036,-0.480214,-0.542914,-0.483921,-0.517770,-0.481181,-0.475540,-0.469253,-0.504875,-0.484888,-0.472799,-0.489079,-0.492464,-0.492625,-0.477151,-0.508582,-0.481020,-0.476184,-0.510355,-0.486016,-0.458938,-0.477474,-0.523895,-0.444270,-0.495849,-0.506164,-0.471994,-0.519865,-0.463773,-0.467319,-0.473444,-0.518092,-0.536145,-0.514224,-0.496977,-0.466997,-0.498750,-0.515352,-0.454908,-0.466513,-0.468609,-0.463128,-0.465224,-0.471188,-0.472316,-0.471349,-0.525184,-0.514385,-0.478118,-0.471994,-0.519704,-0.473605,-0.516480,-0.534210,-0.466352,-0.507293,-0.516158,-0.490691,-0.473444,-0.473122,-0.467803,-0.511483,-0.516319,-0.476507,-0.486822,-0.468931,-0.483438,-0.468609,-0.474734,-0.478441,-0.450878,-0.474734,-0.528247,-0.474411,-0.492786,-0.475217,-0.482148,-0.498266,-0.534694,-0.487628,-0.487306,-0.494882,-0.506164,-0.503263,-0.535661,-0.506003,-0.494237,-0.481665,-0.487145,-0.493109,-0.477635,-0.524378,-0.480536,-0.521799,-0.490046,-0.544526,-0.501974,-0.497461,-0.485533,-0.504069,-0.527602,-0.486339,-0.473605,-0.509710,-0.475540,-0.516158,-0.481503,-0.471671,-0.487790,-0.533566,-0.496816,-0.491013,-0.484405,-0.494882,-0.486339,-0.538079,-0.497783,-0.528569,-0.525023,-0.480375,-0.481342,-0.488112,-0.512451,-0.476668,-0.524862,-0.490046,-0.527118,-0.497622,-0.482148,-0.486984,-0.507132,-0.476345,-0.500845,-0.487467,-0.491819,-0.488757,-0.479247,-0.535983,-0.526635,-0.469737,-0.477313,-0.474250,-0.520993,-0.480375,-0.468286,-0.529697,-0.477474,-0.497622,-0.465224,-0.460549,-0.488918,-0.495688,-0.450234,-0.497299,-0.427990,-0.450395,-0.484566,-0.422027,-0.482632,-0.445076,-0.462323,-0.456198,-0.396398,-0.410421,-0.439596,-0.387695,-0.429441,-0.381731,-0.432342,-0.431859,-0.395109,-0.453619,-0.440563,-0.451040,-0.477151,-0.506970,-0.545171,-0.613029,-0.598200,-0.653164,-0.618671,-0.630921,-0.675568,-0.661223,-0.692976,-0.721828,-0.651552,-0.666864,-0.659611,-0.670411,-0.676374,-0.644943,-0.716831,-0.676858,-0.657838,-0.646072,-0.624312,-0.660256,-0.644782,-0.591431,-0.565319,-0.588690,-0.541302,-0.563868,-0.541786,-0.520510,-0.529858,-0.476668,-0.478280,-0.495526,-0.467642,-0.523733,-0.516964,-0.473605,-0.525506,-0.462967,-0.465546,-0.520026,-0.456359,-0.482148,-0.523895,-0.454263,-0.468609,-0.449428,-0.467158,-0.467319,-0.500523,-0.459582,-0.454586,-0.457648,-0.457003,-0.456681,-0.473605,-0.509227,-0.486178,-0.501490,-0.444754,-0.450073,-0.458615,-0.483921,-0.450234,-0.509227,-0.501651,-0.510839,-0.457326,-0.453941,-0.461839,-0.452490,-0.452168,-0.463773,-0.450556,-0.509066,-0.443142,-0.499878,-0.465063,-0.474089,-0.501974,-0.445721,-0.440885,-0.463128,-0.481987,-0.488434,-0.457809,-0.459421,-0.474572,-0.462645,-0.463451,-0.466030,-0.491336,-0.442013,-0.442980,-0.434599,-0.484405,-0.424444,-0.447655
 10:15:44.,-0.453619,-0.477474,-0.453780,-0.455553,-0.441691,-0.466997,-0.460549,-0.445559,-0.468609,-0.460549,-0.452652,-0.513095,-0.452813,-0.456520,-0.482309,-0.480859,-0.494398,-0.430731,-0.482793,-0.495043,-0.452974,-0.447332,-0.458776,-0.461355,-0.458132,-0.450556,-0.507937,-0.452813,-0.450878,-0.443786,-0.479569,-0.468286,-0.498911,-0.471349,-0.469737,-0.450717,-0.448300,-0.451201,-0.489724,-0.445882,-0.509872,-0.457809,-0.460388,-0.449267,-0.430086,-0.491336,-0.489240,-0.461678,-0.458776,-0.474895,-0.439112,-0.487628,-0.483276,-0.447494,-0.448461,-0.485855,-0.449105,-0.496493,-0.442497,-0.441852,-0.478602,-0.465224,-0.483115,-0.483599,-0.471994,-0.437661,-0.435082,-0.474734,-0.474411,-0.485694,-0.432665,-0.431859,-0.443142,-0.436533,-0.450073,-0.494398,-0.427668,-0.469253,-0.432826,-0.462645,-0.469253,-0.401718,-0.469092,-0.432504,-0.414935,-0.437500,-0.434760,-0.427990,-0.429119,-0.437178,-0.464740,-0.435566,-0.428796,-0.476668,-0.421704,-0.422671,-0.464901,-0.434760,-0.440563,-0.449589,-0.433471,-0.462323,-0.469737,-0.428958,-0.427829,-0.417675,-0.450395,-0.482470,-0.419931,-0.423316,-0.459744,-0.448461,-0.422671,-0.413645,-0.412356,-0.450878,-0.412517,-0.434599,-0.422027,-0.465707,-0.424283,-0.424767,-0.459744,-0.427507,-0.414612,-0.416546,-0.429602,-0.470221,-0.476023,-0.460388,-0.466997,-0.434115,-0.474734,-0.441207,-0.434438,-0.425411,-0.473444,-0.471188,-0.472155,-0.479408,-0.486339,-0.461033,-0.483760,-0.478280,-0.450395,-0.487628,-0.433632,-0.439112,-0.477474,-0.470221,-0.491980,-0.455714,-0.457971,-0.513740,-0.497461,-0.501651,-0.464096,-0.523895,-0.491336,-0.473767,-0.485694,-0.470865,-0.468931,-0.477796,-0.509549,-0.474089,-0.483438,-0.512773,-0.487951,-0.527924,-0.540335,-0.517286,-0.537273,-0.496010,-0.505681,-0.499878,-0.539529,-0.490046,-0.536789,-0.539691,-0.514062,-0.503263,-0.527279,-0.536467,-0.543720,-0.498266,-0.550490,-0.513579,-0.517608,-0.501974,-0.507132,-0.504714,-0.526312,-0.505520,-0.556615,-0.551779,-0.515513,-0.540980,-0.516480,-0.538562,-0.507776,-0.547427,-0.552908,-0.564513,-0.557098,-0.532599,-0.511000,-0.502941,-0.532921,-0.493753,-0.520671,-0.566286,-0.489240,-0.557743,-0.551296,-0.546622,-0.509710,-0.542108,-0.521638,-0.512451,-0.560644,-0.530020,-0.514385,-0.514707,-0.524056,-0.522766,-0.529697,-0.513901,-0.504391,-0.495204,-0.501812,-0.530020,-0.516641,-0.541947,-0.543237,-0.513418,-0.552746,-0.527279,-0.504714,-0.545977,-0.508743,-0.518737,-0.516964,-0.507293,-0.541464,-0.539368,-0.504391,-0.492947,-0.556131,-0.496493,-0.505359,-0.499717,-0.539207,-0.538885,-0.540174,-0.541947,-0.513418,-0.505359,-0.513901,-0.554520,-0.501651,-0.507454,-0.541141,-0.523895,-0.536950,-0.524378,-0.512451,-0.493109,-0.488918,-0.511645,-0.559355,-0.530020,-0.515030,-0.495849,-0.502941,-0.504553,-0.512612,-0.517608,-0.536145,-0.555003,-0.491658,-0.486984,-0.572733,-0.490368,-0.499395,-0.562256,-0.538401,-0.515513,-0.494237,-0.506164,-0.526635,-0.539852,-0.508743,-0.501812,-0.504714,-0.542431,-0.475217,-0.533566,-0.508743,-0.470059,-0.535016,-0.496332,-0.532760,-0.501812,-0.511806,-0.507132,-0.491980,-0.548395,-0.507293,-0.507937,-0.516641,-0.501812,-0.537918,-0.514868,-0.496816,-0.496332,-0.498911,-0.547266,-0.505520,-0.520510,-0.496493,-0.500523,-0.524701,-0.540497,-0.519704,-0.501007,-0.486016,-0.499072,-0.481181,-0.507615,-0.522283,-0.513579,-0.501651,-0.482632,-0.496332,-0.547105,-0.488595,-0.498750,-0.492464,-0.497138,-0.500362,-0.544526,-0.499395,-0.496977,-0.533566,-0.500684,-0.524056,-0.474734,-0.522283,-0.483921,-0.540013,-0.498266,-0.505359,-0.539852,-0.505036,-0.502457,-0.530503,-0.526151,-0.524701,-0.530181,-0.520993,-0.524056,-0.497138,-0.525506,-0.547750,-0.521638,-0.488757,-0.521155,-0.476345,-0.539691,-0.481665,-0.529858,-0.503424,-0.535661,-0.546783,-0.540174,-0.496010,-0.535500,-0.513095,-0.533727,-0.470865,-0.469576,-0.515835,-0.469737,-0.501490,-0.485372,-0.482793,-0.508905,-0.499556,-0.490691,-0.495526,-0.539046,-0.485855,-0.500039,-0.506164,-0.483438,-0.546944,-0.531148,-0.513740,-0.531954,-0.508421,-0.493753,-0.488918,-0.503424,-0.502618,-0.533404,-0.537595,-0.519381,-0.492786,-0.489885,-0.503747,-0.539207,-0.503747,-0.513579,-0.497461,-0.476023,-0.482954,-0.534694,-0.542270,-0.532115,-0.487306,-0.503102,-0.529536,-0.490530,-0.481181,-0.491013,-0.486339,-0.538724,-0.487467,-0.532276,-0.488595,-0.531470,-0.486500,-0.530342,-0.480536,-0.531793,-0.479892,-0.529214,-0.509710,-0.538724,-0.496171,-0.531954,-0.515030,-0.536789,-0.471671,-0.535500,-0.518253,-0.519704,-0.494720,-0.479086,-0.528408,-0.535339,-0.505359,-0.493431,-0.508421,-0.498105,-0.485211,-0.496493,-0.526474,-0.529052,-0.483599,-0.512128,-0.525345,-0.488757,-0.525506,-0.491497,-0.490691,-0.532437,-0.493592,-0.486178,-0.540174,-0.519704,-0.502780,-0.546460,-0.527441,-0.489563,-0.500039,-0.531470,-0.515835,-0.477151,-0.531470,-0.463934,-0.504875,-0.527279,-0.534855,-0.488434,-0.480214,-0.494076,-0.526151,-0.495526,-0.510839,-0.477957,-0.485211,-0.486984,-0.480697,-0.503263,-0.520510,-0.502457,-0.482309,-0.476829,-0.537434,-0.527602,-0.480859,-0.526151,-0.521155,-0.539529,-0.507293,-0.509066,-0.493431,-0.528730,-0.488273,-0.488595,-0.522766,-0.483599,-0.480214,-0.476990,-0.486500,-0.492786,-0.486178,-0.515513,-0.498266,-0.505681,-0.535983,-0.475862,-0.493592,-0.483276,-0.490207,-0.497299,-0.477151,-0.476829,-0.480859,-0.459582,-0.537756,-0.508743,-0.519381,-0.483921,-0.513901,-0.502457,-0.486016,-0.516803,-0.533888,-0.482148,-0.486178,-0.522122,-0.472799,-0.468447,-0.458132,-0.504230,-0.486339,-0.481181,-0.505036,-0.512934,-0.492625,-0.522928,-0.482148,-0.512934,-0.479086,-0.491013,-0.518898,-0.488757,-0.482632,-0.493914,-0.488595,-0.463612,-0.492947,-0.463290,-0.499395,-0.480536,-0.518576,-0.486339,-0.529536,-0.485211,-0.526312,-0.489079,-0.521799,-0.504069,-0.475217,-0.481987,-0.478118,-0.483760,-0.478602,-0.459744,-0.519381,-0.482632,-0.490691,-0.485855,-0.498911,-0.500845,-0.511000,-0.497461,-0.485049,-0.488918,-0.537918,-0.528408,-0.545977,-0.490852,-0.544043,-0.539207,-0.535016,-0.505197,-0.524378,-0.508099,-0.488112,-0.490046,-0.551296,-0.492947,-0.495849,-0.542270,-0.538885,-0.530503,-0.492625,-0.494882,-0.533243,-0.515835,-0.530503,-0.487467,-0.534210,-0.533727,-0.555970,-0.524862,-0.539046,-0.526151,-0.489724,-0.541464,-0.491497,-0.535822,-0.518414,-0.525829,-0.512934,-0.489401,-0.472961,-0.491497,-0.525829,-0.488434,-0.533082,-0.491980,-0.490530,-0.503908,-0.544848,-0.507615,-0.528085,-0.500845,-0.538885,-0.510355,-0.501974,-0.485372,-0.527602,-0.530826,-0.481665,-0.528408,-0.491013,-0.481987,-0.492786,-0.514707,-0.484082,-0.483760,-0.481826,-0.472638,-0.496655,-0.453780,-0.503747,-0.518576,-0.447977,-0.494559,-0.483760,-0.434599,-0.445398,-0.436694,-0.449428,-0.481987,-0.435244,-0.435727,-0.419287,-0.433309,-0.430569,-0.391402,-0.392691,-0.395915,-0.429280,-0.373027,-0.383504,-0.384471,-0.423155,-0.430892,-0.479247,-0.491658,-0.480375,-0.517447,-0.529697,-0.596427,-0.633983,-0.595460,-0.626730,-0.668315,-0.645105,-0.707644,-0.657838,-0.668154,-0.723440,-0.713608,-0.699262,-0.680887,-0.726341,-0.695555,-0.691042,-0.725697,-0.682660,-0.688463,-0.663963,-0.641397,-0.650746,-0.657193,-0.581115,-0.627858,-0.543559,-0.525345,-0.529375,-0.564674,-0.561934,-0.518414,-0.545816,-0.496977,-0.518737,-0.496816,-0.483921,-0.531470,-0.486178,-0.530503,-0.516480,-0.509388,-0.468286,-0.460549,-0.469737,-0.465869,-0.519059,-0.519865,-0.456198,-0.465707,-0.513901,-0.468931,-0.471832,-0.458454,-0.481987,-0.505520,-0.501490,-0.481020,-0.461194,-0.449750,-0.456359,-0.499234,-0.452007,-0.456198,-0.459421,-0.508743,-0.470543,-0.504553,-0.480859,-0.479086,-0.468286,-0.472316,-0.494237,-0.456520,-0.495849,-0.439918,-0.451362,-0.432665,-0.492141,-0.459905,-0.448622,-0.509388,-0.456681,-0.449589,-0.461839,-0.439918,-0.472638,-0.463451,-0.479892,-0.450878,-0.430569,-0.456681,-0.494559,-0.418642,-0.476184,-0.483115,-0.450234,-0.494076,-0.430892,-0.490852,-0.474250,-0.445559,-0.447494,-0.454908,-0.451040,-0.486500,-0.460711,-0.465224,-0.476023,-0.485855,-0.501168,-0.490691,-0.454263,-0.489079,-0.497783,-0.440402,-0.483760,-0.480536,-0.442336,-0.463773,-0.469092,-0.471510,-0.482793,-0.441852,-0.463290,-0.427507,-0.440402,-0.431375,-0.424122,-0.439434,-0.434599,-0.490046,-0.468125,-0.437500,-0.445237,-0.462967,-0.441207,-0.433309,-0.492947,-0.451684,-0.452007,-0.449105,-0.482470,-0.500845,-0.469092,-0.457326,-0.453296,-0.454102,-0.451201,-0.486178,-0.440885,-0.501007,-0.480697,-0.440885,-0.435888,-0.430569,-0.455069,-0.442497,-0.434921,-0.464096,-0.414612,-0.471994,-0.427023,-0.441207,-0.472316,-0.439596,-0.487951,-0.432020,-0.480053,-0.442013,-0.432826,-0.432020,-0.442336,-0.439757,-0.463773,-0.466030,-0.421060,-0.452329,-0.479892,-0.412033,-0.437661,-0.462484,-0.464579,-0.432665,-0.455069,-0.420898,-0.424767,-0.455875,-0.415257,-0.441530,-0.460066,-0.456036,-0.450556,-0.399461,-0.408810,-0.416708,-0.456036,-0.438951,-0.422349,-0.420898,-0.411711,-0.438145,-0.418481,-0.437178,-0.445398,-0.470382,-0.447977,-0.412356,-0.428796,-0.400428,-0.452652,-0.413645,-0.442980,-0.420415,-0.401718,-0.425573,-0.451684,-0.431214,-0.450556,-0.456359,-0.458938,-0.450073,-0.394948,-0.419287,-0.451523,-0.406553,-0.403813,-0.414612,-0.406392,-0.462806,-0.415740,-0.454425,-0.430247,-0.432181,-0.459421,-0.471349,-0.434115,-0.476829,-0.437984,-0.422671,-0.436533,-0.417352,-0.424444,-0.431536,-0.456520,-0.433309,-0.453457,-0.457487,-0.491980,-0.452007,-0.493270,-0.465224,-0.496010,-0.498428,-0.492786,-0.452168,-0.438790,-0.499878,-0.483115,-0.461678,-0.473605,-0.466191,-0.522444,-0.468931,-0.478924,-0.536628,-0.466674,-0.474572,-0.487145,-0.482632,-0.539852,-0.525506,-0.536950,-0.514385,-0.527924,-0.530987,-0.473928,-0.492947,-0.544848,-0.540497,-0.502618,-0.500362,-0.497299,-0.501651,-0.520832,-0.500684,-0.552908,-0.547427,-0.503585,-0.501007,-0.530826,-0.532760,-0.527602,-0.527602,-0.489563,-0.555003,-0.545493,-0.553875,-0.502457,-0.529697,-0.546299,-0.511000,-0.547589,-0.550329,-0.558388,-0.543881,-0.499878,-0.544848,-0.492625,-0.504714,-0.515030,-0.512612
 10:15:45.,-0.513901,-0.536789,-0.556937,-0.514707,-0.504391,-0.549362,-0.520187,-0.554197,-0.527924,-0.547589,-0.504069,-0.509549,-0.491013,-0.519543,-0.499234,-0.541141,-0.493431,-0.536628,-0.502296,-0.561773,-0.514062,-0.546460,-0.522928,-0.545171,-0.517125,-0.531631,-0.506326,-0.510194,-0.510678,-0.539852,-0.542431,-0.500039,-0.541302,-0.511806,-0.540658,-0.506164,-0.502296,-0.547427,-0.506970,-0.554842,-0.538079,-0.531793,-0.507293,-0.538724,-0.543398,-0.537595,-0.499395,-0.492625,-0.523250,-0.488757,-0.538885,-0.507615,-0.506487,-0.502618,-0.538724,-0.542914,-0.502135,-0.550490,-0.505520,-0.500845,-0.549362,-0.496493,-0.550168,-0.540819,-0.491819,-0.536789,-0.556615,-0.493270,-0.540335,-0.509066,-0.489079,-0.503747,-0.502941,-0.497299,-0.526796,-0.545493,-0.501168,-0.494720,-0.480053,-0.522444,-0.525345,-0.511967,-0.492947,-0.519381,-0.491336,-0.535016,-0.532437,-0.537273,-0.511806,-0.511000,-0.535983,-0.504391,-0.502296,-0.546138,-0.494398,-0.509872,-0.542914,-0.495526,-0.477796,-0.523572,-0.481826,-0.500845,-0.526957,-0.530826,-0.490046,-0.531470,-0.506164,-0.549039,-0.488918,-0.530987,-0.498266,-0.493431,-0.538079,-0.486661,-0.480536,-0.483599,-0.513418,-0.472799,-0.500362,-0.531631,-0.487467,-0.500845,-0.487628,-0.501490,-0.493270,-0.525023,-0.501168,-0.485211,-0.527924,-0.484243,-0.509227,-0.538079,-0.494398,-0.525668,-0.493592,-0.491497,-0.493109,-0.485533,-0.544043,-0.483760,-0.511806,-0.515513,-0.499234,-0.496977,-0.529858,-0.488273,-0.488434,-0.462323,-0.526635,-0.521638,-0.466836,-0.484405,-0.524701,-0.486661,-0.534533,-0.525184,-0.524862,-0.498750,-0.536950,-0.488595,-0.538079,-0.502618,-0.524056,-0.470221,-0.479247,-0.534533,-0.481020,-0.521638,-0.497138,-0.523089,-0.508582,-0.492141,-0.490691,-0.511000,-0.511645,-0.539207,-0.488112,-0.471832,-0.535822,-0.477474,-0.484405,-0.532437,-0.471349,-0.491497,-0.485211,-0.480375,-0.540174,-0.486661,-0.534049,-0.500523,-0.480859,-0.484566,-0.496655,-0.524378,-0.477796,-0.549684,-0.480053,-0.482470,-0.479247,-0.486339,-0.500201,-0.479086,-0.507615,-0.501168,-0.484566,-0.536145,-0.487790,-0.538562,-0.529375,-0.511967,-0.477313,-0.523572,-0.506648,-0.480053,-0.534049,-0.538401,-0.500201,-0.531309,-0.495365,-0.505842,-0.484082,-0.481987,-0.537756,-0.533243,-0.480214,-0.484405,-0.514224,-0.497461,-0.483276,-0.516158,-0.491174,-0.464418,-0.466352,-0.537756,-0.473122,-0.485533,-0.487145,-0.532437,-0.500845,-0.541947,-0.479408,-0.533082,-0.522766,-0.513579,-0.488757,-0.479247,-0.469092,-0.495526,-0.461033,-0.490207,-0.488595,-0.504391,-0.494720,-0.530181,-0.487467,-0.541625,-0.517125,-0.489401,-0.510194,-0.518253,-0.524217,-0.481987,-0.512934,-0.511806,-0.474250,-0.481665,-0.477957,-0.505036,-0.479730,-0.501168,-0.497783,-0.486984,-0.505359,-0.487467,-0.494559,-0.525023,-0.528085,-0.504875,-0.512128,-0.537918,-0.530987,-0.475217,-0.537595,-0.525345,-0.502780,-0.538240,-0.486984,-0.484243,-0.487145,-0.499072,-0.493270,-0.490207,-0.477474,-0.492786,-0.478763,-0.516803,-0.490046,-0.520510,-0.510194,-0.496655,-0.530987,-0.497138,-0.518414,-0.485211,-0.493270,-0.500523,-0.498911,-0.524217,-0.489079,-0.541141,-0.539529,-0.484727,-0.495688,-0.473767,-0.515030,-0.517125,-0.506648,-0.481020,-0.532437,-0.481665,-0.517931,-0.542431,-0.484405,-0.510033,-0.543881,-0.491174,-0.500201,-0.521155,-0.523250,-0.485694,-0.453135,-0.490691,-0.476829,-0.476023,-0.540658,-0.469253,-0.474895,-0.525990,-0.471994,-0.547750,-0.531631,-0.470221,-0.502780,-0.483115,-0.521960,-0.482470,-0.496655,-0.469415,-0.471349,-0.506003,-0.505359,-0.535177,-0.515997,-0.480859,-0.478763,-0.496655,-0.535983,-0.477796,-0.495849,-0.535983,-0.514224,-0.475217,-0.520187,-0.474089,-0.525184,-0.481342,-0.485694,-0.477313,-0.485694,-0.484888,-0.483115,-0.538401,-0.481020,-0.501168,-0.489401,-0.485372,-0.486016,-0.494237,-0.483438,-0.530987,-0.468125,-0.481665,-0.534694,-0.497622,-0.504069,-0.501168,-0.489563,-0.550006,-0.522766,-0.542431,-0.497783,-0.543881,-0.511322,-0.499717,-0.486500,-0.554842,-0.512289,-0.529375,-0.540980,-0.511483,-0.531148,-0.513257,-0.497783,-0.533082,-0.533404,-0.512289,-0.533727,-0.503908,-0.534372,-0.495204,-0.493914,-0.528247,-0.541947,-0.531954,-0.482148,-0.496493,-0.496493,-0.528408,-0.517447,-0.494237,-0.500362,-0.498105,-0.490852,-0.550651,-0.486339,-0.534372,-0.508260,-0.493270,-0.492141,-0.514868,-0.540013,-0.489724,-0.488757,-0.510355,-0.544526,-0.537434,-0.537112,-0.496493,-0.537273,-0.536145,-0.483760,-0.528085,-0.503747,-0.525990,-0.468609,-0.474411,-0.453941,-0.471188,-0.510678,-0.441691,-0.504069,-0.471671,-0.448783,-0.453457,-0.441207,-0.456520,-0.442336,-0.480053,-0.445559,-0.426701,-0.423316,-0.402201,-0.383665,-0.384632,-0.380764,-0.426701,-0.361422,-0.447332,-0.399944,-0.408648,-0.459582,-0.443625,-0.487306,-0.509549,-0.564835,-0.549362,-0.570638,-0.648006,-0.678147,-0.674762,-0.700391,-0.709901,-0.693137,-0.712479,-0.675891,-0.694105,-0.734239,-0.699746,-0.701358,-0.713285,-0.715703,-0.730371,-0.741493,-0.681855,-0.678309,-0.660578,-0.679598,-0.670249,-0.633338,-0.589335,-0.572411,-0.573700,-0.547750,-0.528891,-0.561773,-0.569026,-0.552424,-0.493914,-0.503424,-0.545654,-0.488273,-0.486822,-0.488434,-0.538724,-0.472961,-0.518898,-0.497461,-0.468286,-0.509872,-0.483115,-0.465707,-0.473767,-0.486500,-0.525829,-0.511483,-0.501974,-0.518898,-0.466674,-0.496332,-0.464418,-0.507937,-0.458938,-0.504069,-0.452652,-0.458454,-0.496816,-0.466836,-0.460872,-0.516803,-0.510194,-0.449267,-0.466836,-0.445559,-0.475862,-0.456681,-0.489563,-0.524056,-0.445237,-0.445076,-0.504230,-0.440885,-0.458615,-0.494882,-0.445882,-0.505842,-0.454586,-0.448300,-0.446043,-0.472477,-0.465707,-0.504391,-0.446688,-0.436533,-0.438629,-0.471188,-0.480053,-0.447977,-0.440079,-0.503585,-0.450556,-0.446688,-0.457165,-0.440724,-0.481181,-0.437500,-0.440079,-0.441207,-0.451846,-0.445559,-0.502296,-0.434921,-0.440724,-0.481020,-0.468125,-0.476668,-0.487467,-0.460872,-0.441691,-0.449267,-0.495204,-0.478441,-0.476990,-0.437823,-0.457809,-0.440563,-0.474895,-0.439112,-0.436050,-0.453941,-0.430086,-0.482632,-0.440563,-0.446849,-0.452813,-0.445076,-0.435566,-0.486339,-0.454747,-0.427507,-0.447977,-0.441852,-0.488918,-0.442497,-0.436856,-0.439434,-0.435727,-0.447816,-0.483921,-0.476023,-0.444915,-0.480375,-0.439273,-0.475056,-0.472155,-0.422188,-0.447977,-0.475378,-0.476668,-0.445076,-0.424283,-0.432826,-0.438951,-0.448461,-0.462000,-0.487790,-0.445559,-0.490530,-0.472155,-0.448944,-0.444109,-0.430086,-0.439434,-0.486661,-0.437339,-0.423316,-0.429763,-0.423155,-0.478924,-0.471510,-0.451846,-0.479569,-0.410099,-0.463612,-0.424606,-0.418964,-0.422671,-0.436694,-0.457165,-0.450717,-0.436533,-0.448138,-0.456681,-0.440724,-0.460711,-0.465707,-0.453296,-0.411066,-0.413967,-0.417191,-0.469253,-0.436372,-0.454425,-0.409616,-0.412033,-0.408487,-0.439273,-0.396721,-0.433148,-0.406231,-0.400589,-0.408004,-0.435727,-0.394787,-0.443464,-0.433148,-0.407359,-0.417352,-0.422027,-0.451040,-0.440885,-0.455230,-0.404619,-0.454908,-0.414290,-0.418803,-0.398977,-0.406875,-0.431859,-0.396882,-0.471510,-0.451040,-0.410421,-0.477796,-0.435082,-0.462967,-0.419448,-0.468125,-0.426217,-0.424283,-0.445398,-0.440724,-0.416708,-0.482793,-0.454747,-0.456198,-0.491819,-0.413645,-0.456036,-0.437500,-0.430731,-0.455230,-0.497622,-0.477635,-0.441530,-0.486661,-0.455230,-0.494398,-0.454263,-0.510355,-0.500201,-0.453457,-0.461033,-0.503908,-0.461678,-0.465063,-0.465869,-0.524217,-0.532921,-0.525506,-0.494559,-0.517125,-0.480859,-0.535822,-0.520510,-0.500845,-0.480536,-0.524701,-0.536467,-0.520832,-0.544687,-0.505520,-0.540335,-0.499395,-0.505842,-0.550812,-0.500039,-0.550651,-0.517286,-0.543237,-0.556131,-0.508743,-0.565641,-0.506809,-0.506326,-0.504714,-0.464740,-0.521155,-0.504391,-0.547750,-0.515835,-0.551457,-0.573862,-0.535177,-0.550329,-0.511483,-0.510678,-0.545332,-0.528408,-0.495526,-0.539368,-0.549684,-0.506164,-0.539207,-0.539368,-0.534694,-0.521638,-0.565802,-0.549039,-0.515191,-0.523411,-0.563868,-0.535500,-0.535177,-0.518253,-0.533888,-0.548395,-0.515352,-0.499395,-0.526151,-0.503102,-0.533727,-0.510678,-0.555164,-0.551779,-0.523089,-0.531793,-0.570799,-0.514546,-0.516158,-0.567414,-0.556776,-0.550168,-0.505520,-0.531631,-0.514062,-0.555325,-0.551296,-0.521477,-0.520187,-0.556937,-0.533888,-0.552746,-0.524862,-0.540497,-0.556776,-0.511161,-0.569671,-0.550651,-0.505359,-0.554842,-0.484566,-0.504391,-0.524539,-0.492303,-0.501490,-0.531793,-0.506326,-0.528569,-0.507293,-0.516480,-0.512451,-0.523895,-0.539368,-0.502780,-0.520832,-0.543559,-0.502135,-0.507454,-0.502780,-0.540174,-0.544365,-0.515030,-0.507132,-0.506648,-0.545493,-0.543881,-0.539207,-0.545654,-0.552102,-0.502941,-0.525023,-0.512128,-0.486822,-0.501974,-0.536950,-0.488918,-0.478118,-0.528085,-0.494076,-0.530826,-0.494559,-0.505197,-0.502618,-0.504875,-0.516480,-0.503908,-0.534210,-0.523895,-0.508582,-0.481987,-0.493270,-0.487467,-0.480536,-0.497299,-0.530020,-0.527924,-0.502457,-0.507615,-0.505681,-0.491980,-0.491658,-0.499395,-0.484888,-0.541141,-0.504391,-0.493270,-0.493914,-0.475701,-0.485049,-0.536467,-0.470704,-0.528408,-0.486822,-0.501974,-0.495526,-0.492141,-0.539368,-0.499878,-0.498911,-0.497461,-0.545171,-0.517608,-0.485211,-0.482793,-0.517447,-0.526312,-0.497622,-0.493592,-0.508905,-0.495849,-0.498428,-0.502135,-0.493753,-0.488757,-0.480375,-0.494559,-0.543881,-0.528247,-0.493431,-0.499395,-0.471510,-0.528569,-0.470865,-0.533243,-0.482793,-0.485211,-0.525345,-0.503747,-0.495688,-0.499395,-0.521155,-0.546783,-0.500201,-0.481826,-0.547427,-0.489401,-0.521799,-0.497138,-0.529214,-0.470865,-0.497783,-0.522928,-0.537595,-0.490530,-0.511806,-0.550973,-0.489885,-0.532599,-0.488918,-0.495688,-0.506164,-0.488434,-0.480375,-0.493914,-0.532437,-0.472961,-0.486984,-0.494720,-0.529052,-0.497461,-0.515674,-0.513901,-0.524056,-0.486984,-0.497299,-0.497138,-0.534855,-0.510678,-0.492786,-0.489240,-0.492141,-0.489401,-0.523089,-0.478280,-0.527279,-0.556293,-0.486984,-0.496332,-0.498428,-0.510194,-0.539368,-0.491497,-0.504875,-0.496332,-0.511967,-0.486984,-0.498266,-0.530664,-0.531954,-0.495043
 10:15:46.,-0.477151,-0.536789,-0.517286,-0.494882,-0.541947,-0.530503,-0.531309,-0.498266,-0.501651,-0.496171,-0.489885,-0.484243,-0.487951,-0.515352,-0.525345,-0.483438,-0.520832,-0.482148,-0.503747,-0.534533,-0.519865,-0.514546,-0.530987,-0.507132,-0.480859,-0.529214,-0.497944,-0.474895,-0.499717,-0.509066,-0.472477,-0.532437,-0.488918,-0.511483,-0.501651,-0.482148,-0.491980,-0.526796,-0.505520,-0.537918,-0.485372,-0.489563,-0.499878,-0.533082,-0.529375,-0.488918,-0.531470,-0.498428,-0.486661,-0.468931,-0.480536,-0.493753,-0.480536,-0.530342,-0.483276,-0.530987,-0.504553,-0.488757,-0.500684,-0.543075,-0.515835,-0.493431,-0.489724,-0.496977,-0.531470,-0.472155,-0.524539,-0.495365,-0.498105,-0.488918,-0.525990,-0.490691,-0.491336,-0.489724,-0.477796,-0.496655,-0.545010,-0.485533,-0.489079,-0.465385,-0.472799,-0.534533,-0.500201,-0.533082,-0.523895,-0.516641,-0.491980,-0.530987,-0.488112,-0.487790,-0.488112,-0.530987,-0.478602,-0.494720,-0.512289,-0.474250,-0.460549,-0.469415,-0.477957,-0.457809,-0.481181,-0.468770,-0.475701,-0.534372,-0.470704,-0.481342,-0.492464,-0.470865,-0.480214,-0.472155,-0.531793,-0.488434,-0.479730,-0.508099,-0.505036,-0.459905,-0.472477,-0.509388,-0.475862,-0.529052,-0.488757,-0.517931,-0.526151,-0.492303,-0.516964,-0.504553,-0.478763,-0.522766,-0.481826,-0.512612,-0.491658,-0.471994,-0.526474,-0.517286,-0.472638,-0.507615,-0.488757,-0.522928,-0.523250,-0.522605,-0.502780,-0.504875,-0.534049,-0.503908,-0.534694,-0.507454,-0.504391,-0.483599,-0.515191,-0.536145,-0.501168,-0.498589,-0.541302,-0.495526,-0.542914,-0.543237,-0.501974,-0.541141,-0.503102,-0.498105,-0.497461,-0.502296,-0.507937,-0.520349,-0.480697,-0.494398,-0.473283,-0.503102,-0.537595,-0.529052,-0.505036,-0.495526,-0.540335,-0.540013,-0.522605,-0.494398,-0.528408,-0.495526,-0.494076,-0.544365,-0.522605,-0.533243,-0.494720,-0.479569,-0.547105,-0.488595,-0.489401,-0.546622,-0.494237,-0.493431,-0.525829,-0.518253,-0.518898,-0.491013,-0.487306,-0.493270,-0.469576,-0.489724,-0.516803,-0.477151,-0.478441,-0.492141,-0.505036,-0.516641,-0.519543,-0.510516,-0.517931,-0.464740,-0.474895,-0.475862,-0.492464,-0.460066,-0.461839,-0.445076,-0.456036,-0.446527,-0.470221,-0.435082,-0.430731,-0.421060,-0.426379,-0.411872,-0.453457,-0.402846,-0.387372,-0.379474,-0.410099,-0.373510,-0.370126,-0.361099,-0.357714,-0.376412,-0.384793,-0.419931,-0.470382,-0.457971,-0.498911,-0.530020,-0.556454,-0.597717,-0.622378,-0.639947,-0.701035,-0.682177,-0.679598,-0.670088,-0.718604,-0.693943,-0.702647,-0.690881,-0.721506,-0.737946,-0.737141,-0.725374,-0.747456,-0.741009,-0.729243,-0.685239,-0.727308,-0.672828,-0.633661,-0.620766,-0.620766,-0.589335,-0.540013,-0.572733,-0.541947,-0.498911,-0.518414,-0.515674,-0.535822,-0.553875,-0.500845,-0.536628,-0.510194,-0.519381,-0.486016,-0.484888,-0.476023,-0.459582,-0.470704,-0.489079,-0.465546,-0.484566,-0.494076,-0.512451,-0.460549,-0.500845,-0.465546,-0.495849,-0.505842,-0.504875,-0.457326,-0.461678,-0.457326,-0.446688,-0.496332,-0.475862,-0.457971,-0.489563,-0.488757,-0.459421,-0.501329,-0.454425,-0.460227,-0.485211,-0.503263,-0.493270,-0.480859,-0.455553,-0.457165,-0.451523,-0.475217,-0.451201,-0.433148,-0.485049,-0.456842,-0.442013,-0.501812,-0.452007,-0.507937,-0.450234,-0.445398,-0.447816,-0.493270,-0.457648,-0.444915,-0.448622,-0.495365,-0.438306,-0.438467,-0.481987,-0.460711,-0.443303,-0.444915,-0.490530,-0.481987,-0.463290,-0.449911,-0.454908,-0.497138,-0.480536,-0.495043,-0.459260,-0.442819,-0.495204,-0.440563,-0.442819,-0.437984,-0.456681,-0.496977,-0.439918,-0.447494,-0.506003,-0.449105,-0.450395,-0.464096,-0.454908,-0.459260,-0.451684,-0.482793,-0.441207,-0.442175,-0.460711,-0.480536,-0.479569,-0.441369,-0.505197,-0.483438,-0.436211,-0.454747,-0.448300,-0.488595,-0.471994,-0.443625,-0.470543,-0.451846,-0.451201,-0.440724,-0.480053,-0.442175,-0.445237,-0.440724,-0.471510,-0.437661,-0.470382,-0.492786,-0.448461,-0.475862,-0.453296,-0.440240,-0.445398,-0.440240,-0.442819,-0.464418,-0.486500,-0.463451,-0.453780,-0.422994,-0.467803,-0.443625,-0.468609,-0.448944,-0.477474,-0.435566,-0.484727,-0.460549,-0.466674,-0.440885,-0.429119,-0.466191,-0.432987,-0.427668,-0.419770,-0.453296,-0.455553,-0.434115,-0.421543,-0.422994,-0.422671,-0.419448,-0.418803,-0.457487,-0.423638,-0.430569,-0.463290,-0.411066,-0.427346,-0.406392,-0.402523,-0.398171,-0.399300,-0.403168,-0.398171,-0.423961,-0.453941,-0.447494,-0.428152,-0.413000,-0.405102,-0.404780,-0.407037,-0.412194,-0.435082,-0.467803,-0.398494,-0.403007,-0.398655,-0.390918,-0.425250,-0.437984,-0.407681,-0.434921,-0.417513,-0.452490,-0.416224,-0.458615,-0.410905,-0.459905,-0.426056,-0.412033,-0.416869,-0.457003,-0.443142,-0.398494,-0.405747,-0.444431,-0.405425,-0.458293,-0.427023,-0.430731,-0.439918,-0.424767,-0.432181,-0.471832,-0.425895,-0.431536,-0.429280,-0.480214,-0.437017,-0.436211,-0.453135,-0.436050,-0.484082,-0.452007,-0.437984,-0.459421,-0.498589,-0.483115,-0.467803,-0.461678,-0.497138,-0.461517,-0.502618,-0.482470,-0.477474,-0.475701,-0.516641,-0.514385,-0.499878,-0.505842,-0.484243,-0.484566,-0.494237,-0.497138,-0.494398,-0.510355,-0.496655,-0.530181,-0.541625,-0.550168,-0.531954,-0.521316,-0.507615,-0.515674,-0.492303,-0.568865,-0.541947,-0.517447,-0.572572,-0.511645,-0.516480,-0.531148,-0.569993,-0.564513,-0.551941,-0.534049,-0.571766,-0.574990,-0.518414,-0.575796,-0.513901,-0.565964,-0.512451,-0.515997,-0.523572,-0.518898,-0.537112,-0.577569,-0.556937,-0.529536,-0.533888,-0.539368,-0.588368,-0.557098,-0.558549,-0.526957,-0.504391,-0.527924,-0.518092,-0.574990,-0.575957,-0.573378,-0.542431,-0.532921,-0.528408,-0.580631,-0.536467,-0.517931,-0.528891,-0.557260,-0.525023,-0.535016,-0.527441,-0.563546,-0.561934,-0.519865,-0.569026,-0.516803,-0.515191,-0.527924,-0.567414,-0.566769,-0.525829,-0.526796,-0.594171,-0.560483,-0.555487,-0.519704,-0.540335,-0.519865,-0.522605,-0.511645,-0.526635,-0.545977,-0.571444,-0.520832,-0.529536,-0.559516,-0.519865,-0.533566,-0.511000,-0.547589,-0.524539,-0.505197,-0.519381,-0.530020,-0.508743,-0.537434,-0.493753,-0.504230,-0.541464,-0.518253,-0.512934,-0.520026,-0.561612,-0.523572,-0.561934,-0.538562,-0.517125,-0.530020,-0.514385,-0.556454,-0.539207,-0.494237,-0.502457,-0.519704,-0.551135,-0.506326,-0.555648,-0.559677,-0.543398,-0.524056,-0.550490,-0.496171,-0.497783,-0.543559,-0.503424,-0.517125,-0.486339,-0.505520,-0.501329,-0.541625,-0.553714,-0.496493,-0.539207,-0.509549,-0.543398,-0.504069,-0.508099,-0.503263,-0.525023,-0.526312,-0.537273,-0.526796,-0.550812,-0.494559,-0.493431,-0.518414,-0.560806,-0.508905,-0.492625,-0.534533,-0.501168,-0.497622,-0.556615,-0.538562,-0.505197,-0.507937,-0.498105,-0.543075,-0.492947,-0.546622,-0.496655,-0.495204,-0.494398,-0.488112,-0.541786,-0.512451,-0.493914,-0.502457,-0.541947,-0.532115,-0.528891,-0.552585,-0.540819,-0.553714,-0.532599,-0.530826,-0.549845,-0.481826,-0.496010,-0.495849,-0.491658,-0.555164,-0.505359,-0.496332,-0.502296,-0.501007,-0.523250,-0.546299,-0.497622,-0.502457,-0.510839,-0.500362,-0.535661,-0.487951,-0.502457,-0.491497,-0.543559,-0.534372,-0.505036,-0.501651,-0.495849,-0.505520,-0.530987,-0.513257,-0.510678,-0.504553,-0.502296,-0.518737,-0.502618,-0.496977,-0.503585,-0.503102,-0.495204,-0.564029,-0.498428,-0.508099,-0.505842,-0.498266,-0.517770,-0.531470,-0.560000,-0.554358,-0.529375,-0.506326,-0.503585,-0.493270,-0.560000,-0.529858,-0.549845,-0.504714,-0.499395,-0.544204,-0.505359,-0.523733,-0.505520,-0.548717,-0.544365,-0.512451,-0.523572,-0.535983,-0.558549,-0.548395,-0.565964,-0.499717,-0.534372,-0.553069,-0.484888,-0.523572,-0.556615,-0.491013,-0.564191,-0.503263,-0.543237,-0.508905,-0.489240,-0.540819,-0.533243,-0.493914,-0.547589,-0.489563,-0.506648,-0.507776,-0.508905,-0.508421,-0.551779,-0.498750,-0.499234,-0.506003,-0.526957,-0.549039,-0.508743,-0.521960,-0.539529,-0.544365,-0.506970,-0.539852,-0.497944,-0.552585,-0.490368,-0.535339,-0.494559,-0.526796,-0.514224,-0.510839,-0.498105,-0.522122,-0.547105,-0.520832,-0.500684,-0.536628,-0.507776,-0.530342,-0.541302,-0.542914,-0.545493,-0.512934,-0.547589,-0.500039,-0.533566,-0.528569,-0.522444,-0.493592,-0.520026,-0.496655,-0.510839,-0.493914,-0.547911,-0.517286,-0.507454,-0.555164,-0.537273,-0.554842,-0.558227,-0.485694,-0.502135,-0.537434,-0.506970,-0.503585,-0.501007,-0.557904,-0.501812,-0.511000,-0.496655,-0.509388,-0.515513,-0.493753,-0.501812,-0.492947,-0.476507,-0.548717,-0.540335,-0.476184,-0.522605,-0.511000,-0.536789,-0.543881,-0.532921,-0.514224,-0.532760,-0.531470,-0.526151,-0.499556,-0.481181,-0.533727,-0.470059,-0.474895,-0.482470,-0.522444,-0.504875,-0.489401,-0.477313,-0.507776,-0.518898,-0.505359,-0.519381,-0.487790,-0.489885,-0.482148,-0.495688,-0.491497,-0.460066,-0.515352,-0.478602,-0.461355,-0.496010,-0.490852,-0.522605,-0.530664,-0.533243,-0.473605,-0.527118,-0.475540,-0.499717,-0.496171,-0.496171,-0.490530,-0.495043,-0.526312,-0.491819,-0.520349,-0.546460,-0.499072,-0.485694,-0.505842,-0.553230,-0.513579,-0.523411,-0.531470,-0.528247,-0.510194,-0.500362,-0.533888,-0.517931,-0.549200,-0.497138,-0.520993,-0.499072,-0.489724,-0.546299,-0.525829,-0.549362,-0.496816,-0.549039,-0.494237,-0.548878,-0.508099,-0.536467,-0.541464,-0.496977,-0.499072,-0.518414,-0.492303,-0.514707,-0.502296,-0.540174,-0.505197,-0.496493,-0.486984,-0.506809,-0.544204,-0.505036,-0.503263,-0.494720,-0.502618,-0.501812,-0.540335,-0.503908,-0.503585,-0.547750,-0.503747,-0.528891,-0.501812,-0.498750,-0.515997,-0.548556,-0.550329,-0.520349,-0.536306,-0.514546,-0.532276,-0.513901,-0.508905,-0.504069,-0.498266,-0.496010,-0.546138,-0.532115,-0.482954,-0.494882,-0.486822,-0.545493,-0.484405,-0.485855,-0.477313,-0.521477,-0.517770,-0.516480,-0.463773,-0.472799,-0.483438,-0.492464,-0.500684,-0.506326,-0.452490,-0.484082,-0.435888,-0.487306,-0.483760,-0.474250,-0.422510,-0.414129,-0.417675,-0.398816,-0.424767,-0.387050,-0.423638,-0.413484,-0.433632,-0.373833,-0.386889,-0.397043,-0.410744,-0.464257,-0.471188,-0.525829,-0.529697,-0.530664,-0.579825,-0.657677,-0.673151,-0.672828,-0.682177,-0.723762,-0.694266,-0.712318,-0.698456,-0.737624
 10:15:47.,-0.692815,-0.703937,-0.714091,-0.708450,-0.750196,-0.724891,-0.745361,-0.698779,-0.684917,-0.664608,-0.682338,-0.673634,-0.633983,-0.633177,-0.594654,-0.576118,-0.534049,-0.530826,-0.521799,-0.512773,-0.515030,-0.494559,-0.492947,-0.513257,-0.525023,-0.489885,-0.517608,-0.493109,-0.514224,-0.542270,-0.459905,-0.476829,-0.471510,-0.475056,-0.473283,-0.460388,-0.465869,-0.464740,-0.517770,-0.488757,-0.486016,-0.468609,-0.461517,-0.457648,-0.459260,-0.458454,-0.485694,-0.512128,-0.475701,-0.460227,-0.501168,-0.504553,-0.470865,-0.505842,-0.455230,-0.466352,-0.511806,-0.464740,-0.492303,-0.465385,-0.488434,-0.462161,-0.483760,-0.491013,-0.509388,-0.479247,-0.434277,-0.455230,-0.436372,-0.469092,-0.448944,-0.448138,-0.491497,-0.470221,-0.438629,-0.475217,-0.479247,-0.453457,-0.491980,-0.484727,-0.437500,-0.480697,-0.436211,-0.449105,-0.457003,-0.493109,-0.455714,-0.446688,-0.451362,-0.456842,-0.447977,-0.485533,-0.448783,-0.481342,-0.445721,-0.475378,-0.501974,-0.426056,-0.439273,-0.494237,-0.430892,-0.480214,-0.447655,-0.441207,-0.448300,-0.487628,-0.444109,-0.448138,-0.482148,-0.444915,-0.443464,-0.482470,-0.470382,-0.482309,-0.478763,-0.456520,-0.445076,-0.479569,-0.457003,-0.452974,-0.482793,-0.482632,-0.436372,-0.482954,-0.443303,-0.487467,-0.443948,-0.474895,-0.435566,-0.425734,-0.431536,-0.475540,-0.413806,-0.455875,-0.481826,-0.434760,-0.463773,-0.448622,-0.442013,-0.441530,-0.462967,-0.435082,-0.463128,-0.455875,-0.451523,-0.481020,-0.466997,-0.443142,-0.447010,-0.424767,-0.420737,-0.459260,-0.476668,-0.428796,-0.426379,-0.474250,-0.435082,-0.425089,-0.434599,-0.435244,-0.474895,-0.435727,-0.419770,-0.424444,-0.458615,-0.446043,-0.479086,-0.473283,-0.479730,-0.443464,-0.455875,-0.428313,-0.462000,-0.425895,-0.419931,-0.433148,-0.463451,-0.398816,-0.458615,-0.407520,-0.411066,-0.395431,-0.420254,-0.399300,-0.415418,-0.411389,-0.411066,-0.405586,-0.405425,-0.407842,-0.403329,-0.404296,-0.439273,-0.405586,-0.394625,-0.408487,-0.441530,-0.435405,-0.404941,-0.404458,-0.413645,-0.421543,-0.417191,-0.396560,-0.418642,-0.416063,-0.456036,-0.422188,-0.475378,-0.427990,-0.411872,-0.453457,-0.405425,-0.387695,-0.414129,-0.428152,-0.446365,-0.417513,-0.401556,-0.447977,-0.462000,-0.417352,-0.427346,-0.422349,-0.468125,-0.430408,-0.422510,-0.432987,-0.419931,-0.431375,-0.460711,-0.420254,-0.423638,-0.429280,-0.437017,-0.466191,-0.437500,-0.440240,-0.450234,-0.466030,-0.445882,-0.483438,-0.511322,-0.486822,-0.453941,-0.476829,-0.456198,-0.461194,-0.462484,-0.455714,-0.496977,-0.482470,-0.463290,-0.493270,-0.492303,-0.479247,-0.510839,-0.489885,-0.518898,-0.521316,-0.488757,-0.488595,-0.490530,-0.475540,-0.533888,-0.472961,-0.519059,-0.491980,-0.497461,-0.537434,-0.538079,-0.502618,-0.547266,-0.508421,-0.523411,-0.503263,-0.515997,-0.541302,-0.513579,-0.512934,-0.547427,-0.561612,-0.490852,-0.505520,-0.495526,-0.494237,-0.531631,-0.559355,-0.517931,-0.520832,-0.522283,-0.533404,-0.516319,-0.526635,-0.535016,-0.491658,-0.510355,-0.507937,-0.501329,-0.510678,-0.518898,-0.512451,-0.526957,-0.528569,-0.511806,-0.535339,-0.519543,-0.551941,-0.504230,-0.540497,-0.516964,-0.541786,-0.496655,-0.513418,-0.495365,-0.496977,-0.556937,-0.488757,-0.524539,-0.552424,-0.505359,-0.520187,-0.509710,-0.567737,-0.553714,-0.560483,-0.543720,-0.505681,-0.543075,-0.506487,-0.529858,-0.489724,-0.496977,-0.555164,-0.500523,-0.504069,-0.524862,-0.525829,-0.569510,-0.498428,-0.500684,-0.520187,-0.540174,-0.498589,-0.483760,-0.540980,-0.546622,-0.475056,-0.523411,-0.470382,-0.527763,-0.506487,-0.540819,-0.491497,-0.534533,-0.492303,-0.537273,-0.493592,-0.498266,-0.495526,-0.490207,-0.523089,-0.539368,-0.523572,-0.473767,-0.540497,-0.499878,-0.486984,-0.486016,-0.524701,-0.559677,-0.493431,-0.499878,-0.497944,-0.495204,-0.503263,-0.499234,-0.510355,-0.513095,-0.500201,-0.509227,-0.510839,-0.503585,-0.580954,-0.586111,-0.557260,-0.539046,-0.555325,-0.568220,-0.636884,-0.633822,-0.602875,-0.635756,-0.632210,-0.645427,-0.693299,-0.651874,-0.690236,-0.701035,-0.746006,-0.752453,-0.772440,-0.808061,-0.841588,-0.881239,-0.922502,-0.936041,-0.972952,-1.048709,-1.016633,-1.041294,-1.097225,-1.062087,-1.113344,-1.090133,-1.086910,-1.093357,-1.161054,-1.101255,-1.162827,-1.100288,-1.159281,-1.120919,-1.112860,-1.105123,-1.099321,-1.089327,-1.099160,-1.102383,-1.091423,-1.045002,-1.019857,-1.025176,-0.996808,-0.987298,-0.986975,-0.982624,-0.971824,-0.999387,-0.996808,-0.948453,-0.965699,-0.940555,-0.893811,-0.901870,-0.842071,-0.849324,-0.830144,-0.801130,-0.812575,-0.818538,-0.847068,-0.795650,-0.779693,-0.823535,-0.761640,-0.770022,-0.732627,-0.716993,-0.697973,-0.734884,-0.698456,-0.712157,-0.646717,-0.675568,-0.625118,-0.617381,-0.607710,-0.592559,-0.586111,-0.615125,-0.603842,-0.558710,-0.554520,-0.517447,-0.539529,-0.490530,-0.447010,-0.480053,-0.401395,-0.361905,-0.355297,-0.324833,-0.334343,-0.353846,-0.317902,-0.275994,-0.313067,-0.245370,-0.238761,-0.211360,-0.234731,-0.242791,-0.248593,-0.240050,-0.222643,-0.196853,-0.260198,-0.191857,-0.184926,-0.195725,-0.208297,-0.239406,-0.192985,-0.234087,-0.215551,-0.200722,-0.231185,-0.192501,-0.237794,-0.203623,-0.204429,-0.231669,-0.193630,-0.180574,-0.201689,-0.196209,-0.215873,-0.188149,-0.250527,-0.200883,-0.225222,-0.235054,-0.200883,-0.206202,-0.241018,-0.190890,-0.209103,-0.196692,-0.193146,-0.199755,-0.183314,-0.182347,-0.190567,-0.189922,-0.210715,-0.199432,-0.211360,-0.207975,-0.231508,-0.199271,-0.196209,-0.232475,-0.248593,-0.211682,-0.221998,-0.247304,-0.179929,-0.202495,-0.242791,-0.191857,-0.194436,-0.248110,-0.217001,-0.195403,-0.224738,-0.229251,-0.194436,-0.187021,-0.224255,-0.194919,-0.217807,-0.224416,-0.189600,-0.159620,-0.235215,-0.210876,-0.165423,-0.178317,-0.170903,-0.169452,-0.193952,-0.168485,-0.199593,-0.187021,-0.159136,-0.176544,-0.174610,-0.172353,-0.194274,-0.171225,-0.190567,-0.207169,-0.160103,-0.174610,-0.196692,-0.150432,-0.148659,-0.198626,-0.183314,-0.158814,-0.186054,-0.153979,-0.187988,-0.167679,-0.133347,-0.131574,-0.113521,-0.121581,-0.131735,-0.117873,-0.117873,-0.120130,-0.165423,-0.124321,-0.165584,-0.152689,-0.116423,-0.119969,-0.123837,-0.120775,-0.144146,-0.162360,-0.092084,-0.101594,-0.114327,-0.125288,-0.116584,-0.157202,-0.142696,-0.161877,-0.111426,-0.113199,-0.159136,-0.160909,-0.156719,-0.159620,-0.116745,-0.121581,-0.140278,-0.140600,-0.179607,-0.135120,-0.153656,-0.196853,-0.149143,-0.191373,-0.170258,-0.188955,-0.197337,-0.219903,-0.185409,-0.180735,-0.203945,-0.194113,-0.202495,-0.190406,-0.208459,-0.203945,-0.212488,-0.208942,-0.262616,-0.226028,-0.231830,-0.286633,-0.294530,-0.303879,-0.256814,-0.257458,-0.282442,-0.310810,-0.337244,-0.325317,-0.286149,-0.309198,-0.339340,-0.315484,-0.323382,-0.373188,-0.337083,-0.336116,-0.340145,-0.352557,-0.363517,-0.401718,-0.389790,-0.385922,-0.425895,-0.389790,-0.442497,-0.449267,-0.442336,-0.445076,-0.446688,-0.473928,-0.421060,-0.459421,-0.458938,-0.482309,-0.472961,-0.505036,-0.497944,-0.506326,-0.490852,-0.486178,-0.502296,-0.525506,-0.505359,-0.507937,-0.522928,-0.535016,-0.515997,-0.529052,-0.587562,-0.540819,-0.554520,-0.550168,-0.578213,-0.568381,-0.600457,-0.564352,-0.567253,-0.594493,-0.579825,-0.581115,-0.566931,-0.581437,-0.566125,-0.576602,-0.617381,-0.625279,-0.587885,-0.589335,-0.595782,-0.630598,-0.588852,-0.625763,-0.640914,-0.596588,-0.628986,-0.615930,-0.597233,-0.621411,-0.612546,-0.625601,-0.593365,-0.657193,-0.612223,-0.643976,-0.645427,-0.642365,-0.601263,-0.648812,-0.596266,-0.593687,-0.589335,-0.608355,-0.592075,-0.587401,-0.597717,-0.640430,-0.603519,-0.614641,-0.609322,-0.589496,-0.640430,-0.639624,-0.619476,-0.612223,-0.594493,-0.599490,-0.616736,-0.627052,-0.614480,-0.643332,-0.590947,-0.620282,-0.640269,-0.591108,-0.635756,-0.645911,-0.598845,-0.596911,-0.644299,-0.605454,-0.613190,-0.605131,-0.640430,-0.582243,-0.575312,-0.580792,-0.623667,-0.569510,-0.594977,-0.620605,-0.610289,-0.628664,-0.584177,-0.585628,-0.631726,-0.613513,-0.576924,-0.593365,-0.579019,-0.597072,-0.587401,-0.609161,-0.580309,-0.580470,-0.604325,-0.578375,-0.594332,-0.585467,-0.594654,-0.564191,-0.630115,-0.596266,-0.610934,-0.581276,-0.595944,-0.592881,-0.610289,-0.619315,-0.580631,-0.590625,-0.583371,-0.562579,-0.580470,-0.566931,-0.610934,-0.575635,-0.619154,-0.626891,-0.573539,-0.591269,-0.573217,-0.602391,-0.598039,-0.577891,-0.607065,-0.603358,-0.601424,-0.569026,-0.554520,-0.569993,-0.558710,-0.562579,-0.573539,-0.556131,-0.615930,-0.590786,-0.550006,-0.597394,-0.554842,-0.599006,-0.610450,-0.550651,-0.571283,-0.593687,-0.542270,-0.537273,-0.608032,-0.600618,-0.555325,-0.605776,-0.571121,-0.602713,-0.613674,-0.597878,-0.578375,-0.586111,-0.596105,-0.603358,-0.575635,-0.567092,-0.594815,-0.572733,-0.551779,-0.563707,-0.569187,-0.597717,-0.566931,-0.551457,-0.562417,-0.555487,-0.606582,-0.547105,-0.558388,-0.540819,-0.588207,-0.557904,-0.530342,-0.545332,-0.546460,-0.585306,-0.550168,-0.592559,-0.573700,-0.546138,-0.554842,-0.545654,-0.591914,-0.580954,-0.582243,-0.590786,-0.528730,-0.537112,-0.562256,-0.527924,-0.547589,-0.583210,-0.540335,-0.550812,-0.579825,-0.557421,-0.578052,-0.548717,-0.551618,-0.537595,-0.542914,-0.555487,-0.599651,-0.561289,-0.526312,-0.589658,-0.559516,-0.565158,-0.584016,-0.538079,-0.546299,-0.598361,-0.548395,-0.547589,-0.546299,-0.565480,-0.539691,-0.546138,-0.550168,-0.579342,-0.590786,-0.563868,-0.541947,-0.538240,-0.524056,-0.533727,-0.534694,-0.586917,-0.542753,-0.552263,-0.576118,-0.535822,-0.597394,-0.571927,-0.585950,-0.565641,-0.557260,-0.541302,-0.556615,-0.568220,-0.566125,-0.560644,-0.531470,-0.573862,-0.529697,-0.544687,-0.527118,-0.572250,-0.555970,-0.532921,-0.564513,-0.572089,-0.561128,-0.535661,-0.582082,-0.551457,-0.517770,-0.570638,-0.520187,-0.533566,-0.580470,-0.571605,-0.528569,-0.572733,-0.522283,-0.535339,-0.572572,-0.545332,-0.535500,-0.537756,-0.525829,-0.541464,-0.521960,-0.503585,-0.586273,-0.504069,-0.524056,-0.570477,-0.572733,-0.523411,-0.539852,-0.568220,-0.535339,-0.566769,-0.550812,-0.539852,-0.532115,-0.521638,-0.527602,-0.512773,-0.511967
