 10:46:30.,-0.467964,-0.474089,-0.465707,-0.512451,-0.503263,-0.466836,-0.508421,-0.464096,-0.464418,-0.500523,-0.500039,-0.450395,-0.490368,-0.454586,-0.462806,-0.453619,-0.46329,-0.473283,-0.459421,-0.452813,-0.463612,-0.502941,-0.499395,-0.453457,-0.443142,-0.443142,-0.460388,-0.451846,-0.503424,-0.455069,-0.472155,-0.454425,-0.463934,-0.463773,-0.453135,-0.442819,-0.466513,-0.444915,-0.452329,-0.446365,-0.438145,-0.494076,-0.433309,-0.447977,-0.450878,-0.438467,-0.44153,-0.493914,-0.458615,-0.496493,-0.459744,-0.450717,-0.470543,-0.446849,-0.453296,-0.468931,-0.435566,-0.478763,-0.440563,-0.464901,-0.488918,-0.434921,-0.464901,-0.488595,-0.43605,-0.491819,-0.478441,-0.478924,-0.451846,-0.471188,-0.465385,-0.431859,-0.441852,-0.43476,-0.448461,-0.435244,-0.479408,-0.417513,-0.424122,-0.473767,-0.42525,-0.442819,-0.472961,-0.43202,-0.465063,-0.482954,-0.465224,-0.439596,-0.423961,-0.47699,-0.472477,-0.468609,-0.462484,-0.469898,-0.427023,-0.429602,-0.45378,-0.470059,-0.450878,-0.431859,-0.431375,-0.469898,-0.473605,-0.438951,-0.436856,-0.462967,-0.431375,-0.435727,-0.447655,-0.421543,-0.485694,-0.478763,-0.426379,-0.49472,-0.48247,-0.489401,-0.447977,-0.474572,-0.456681,-0.491497,-0.46329,-0.499395,-0.485372,-0.463128,-0.487951,-0.491013,-0.460711,-0.478602,-0.460549,-0.50552,-0.492786,-0.473122,-0.481665,-0.519059,-0.51374,-0.495526,-0.522766,-0.506164,-0.487467,-0.482793,-0.483438,-0.476184,-0.525506,-0.48247,-0.51648,-0.487306,-0.542914,-0.492303,-0.491819,-0.534855,-0.53276,-0.501168,-0.528247,-0.495526,-0.538724,-0.514385,-0.498428,-0.535177,-0.523572,-0.550812,-0.483438,-0.51503,-0.510033,-0.50423,-0.507454,-0.52325,-0.524056,-0.499717,-0.510033,-0.553391,-0.51777,-0.514546,-0.515997,-0.528247,-0.508905,-0.512612,-0.541625,-0.512128,-0.505842,-0.539368,-0.547427,-0.531309,-0.506809,-0.507454,-0.502618,-0.516319,-0.506003,-0.531631,-0.51648,-0.523089,-0.516319,-0.55049,-0.492464,-0.535177,-0.563223,-0.536306,-0.514224,-0.541464,-0.535822,-0.515191,-0.554842,-0.517608,-0.516964,-0.556776,-0.523895,-0.502296,-0.521477,-0.5355,-0.554036,-0.507615,-0.509066,-0.509549,-0.540658,-0.563546,-0.524378,-0.507615,-0.514707,-0.546138,-0.529375,-0.568542,-0.518898,-0.526796,-0.512451,-0.516641,-0.508743,-0.498105,-0.560967,-0.532276,-0.521477,-0.507454,-0.518414,-0.50552,-0.560967,-0.524378,-0.545816,-0.559677,-0.517931,-0.51374,-0.510839,-0.520993,-0.500684,-0.500201,-0.506487,-0.537112,-0.495365,-0.500362,-0.507937,-0.50697,-0.56548,-0.505359,-0.545816,-0.557582,-0.560644,-0.547911,-0.545654,-0.515513,-0.507615,-0.504875,-0.514707,-0.516964,-0.525184,-0.542753,-0.492625,-0.500039,-0.521316,-0.503102,-0.513579,-0.517286,-0.539368,-0.514062,-0.522605,-0.507454,-0.501651,-0.534855,-0.496977,-0.518898,-0.495204,-0.501168,-0.474411,-0.491336,-0.560483,-0.511161,-0.503102,-0.501007,-0.516641,-0.536467,-0.50826,-0.511967,-0.494882,-0.510355,-0.499072,-0.51777,-0.526957,-0.494237,-0.476668,-0.46748,-0.493592,-0.497622,-0.500845,-0.538079,-0.500523,-0.501007,-0.515513,-0.54501,-0.511806,-0.509066,-0.499234,-0.501974,-0.525829,-0.523411,-0.49053,-0.517608,-0.514224,-0.482793,-0.49601,-0.513095,-0.491497,-0.516158,-0.499395,-0.523733,-0.544526,-0.539046,-0.532115,-0.550329,-0.548717,-0.487628,-0.491658,-0.528569,-0.477151,-0.518898,-0.506003,-0.517286,-0.485372,-0.536789,-0.502941,-0.541786,-0.502135,-0.508099,-0.505359,-0.494398,-0.490207,-0.509066,-0.54227,-0.473283,-0.486339,-0.49601,-0.5355,-0.490207,-0.495849,-0.532115,-0.536467,-0.515352,-0.505036,-0.489724,-0.505359,-0.500039,-0.520993,-0.492947,-0.51648,-0.488112,-0.48779,-0.49327,-0.487951,-0.492464,-0.507776,-0.486984,-0.49198,-0.524862,-0.543559,-0.518092,-0.505842,-0.508099,-0.501168,-0.511,-0.517608,-0.509388,-0.481826,-0.526151,-0.497461,-0.495688,-0.524378,-0.548072,-0.491174,-0.493914,-0.500523,-0.531148,-0.524701,-0.486016,-0.486661,-0.494237,-0.520671,-0.487306,-0.493914,-0.510678,-0.527602,-0.495204,-0.512128,-0.522444,-0.496332,-0.546622,-0.503102,-0.487628,-0.49875,-0.503102,-0.523089,-0.503585,-0.494559,-0.520993,-0.500362,-0.473122,-0.521799,-0.522283,-0.51922,-0.501168,-0.494398,-0.491013,-0.519704,-0.535016,-0.539207,-0.499234,-0.526312,-0.535339,-0.526957,-0.495526,-0.477796,-0.483599,-0.491497,-0.508421,-0.487145,-0.540013,-0.534694,-0.487951,-0.506164,-0.510678,-0.531309,-0.535822,-0.499717,-0.542431,-0.537273,-0.497622,-0.484888,-0.502941,-0.491819,-0.528569,-0.502941,-0.491819,-0.530826,-0.507615,-0.499556,-0.529214,-0.507454,-0.534694,-0.488757,-0.523089,-0.496171,-0.524862,-0.49601,-0.533888,-0.501168,-0.484888,-0.500684,-0.483438,-0.496816,-0.538401,-0.519543,-0.549684,-0.494882,-0.52599,-0.502941,-0.501974,-0.544526,-0.524056,-0.537434,-0.523733,-0.485694,-0.541625,-0.469092,-0.486178,-0.488434,-0.518737,-0.500845,-0.495043,-0.533566,-0.528247,-0.494882,-0.494559,-0.488757,-0.498589,-0.535822,-0.519381,-0.4865,-0.481342,-0.526151,-0.496332,-0.485211,-0.489401,-0.526796,-0.490046,-0.487306,-0.514707,-0.530342,-0.529697,-0.535661,-0.538562,-0.504391,-0.481665,-0.487145,-0.488273,-0.493431,-0.537273,-0.479086,-0.470704,-0.502457,-0.517608,-0.484082,-0.498911,-0.485372,-0.495849,-0.496332,-0.541464,-0.519059,-0.503908,-0.505036,-0.511483,-0.533404,-0.538724,-0.485855,-0.505681,-0.519704,-0.477957,-0.533888,-0.539207,-0.49053,-0.528569,-0.481181,-0.485211,-0.481826,-0.496332,-0.479569,-0.485211,-0.526957,-0.491013,-0.481987,-0.533243,-0.541464,-0.468447,-0.513579,-0.495204,-0.496977,-0.522283,-0.490046,-0.48247,-0.502135,-0.495688,-0.515191,-0.48924,-0.524217,-0.485533,-0.51922,-0.482632,-0.470543,-0.477796,-0.530987,-0.546138,-0.49472,-0.48376,-0.506326,-0.489079,-0.499717,-0.495849,-0.486661,-0.494398,-0.490852,-0.538724,-0.52599,-0.481987,-0.521638,-0.519381,-0.526312,-0.532599,-0.47973,-0.492303,-0.488595,-0.491336,-0.48924,-0.516158,-0.49875,-0.522605,-0.51648,-0.487951,-0.495526,-0.541947,-0.462645,-0.504875,-0.477957,-0.462967,-0.532276,-0.540497,-0.479408,-0.493592,-0.544848,-0.494882,-0.495849,-0.519381,-0.49472,-0.502296,-0.484888,-0.477151,-0.512128,-0.470221,-0.468286,-0.480859,-0.510516,-0.529214,-0.516803,-0.527441,-0.492303,-0.529858,-0.502135,-0.515997,-0.523733,-0.533243,-0.488112,-0.494882,-0.509549,-0.470543,-0.514385,-0.485694,-0.476023,-0.509872,-0.524701,-0.470704,-0.476507,-0.478602,-0.484888,-0.477474,-0.513579,-0.504714,-0.476668,-0.469092,-0.476345,-0.500845,-0.457487,-0.471671,-0.504069,-0.528247,-0.520026,-0.473283,-0.478924,-0.508582,-0.515835,-0.46603,-0.471188,-0.47699,-0.510678,-0.514546,-0.470865,-0.461517,-0.48376,-0.500845,-0.490852,-0.50971,-0.515997,-0.478441,-0.495849,-0.503263,-0.485694,-0.504875,-0.501168,-0.49601,-0.501168,-0.473605,-0.485372,-0.443625,-0.475862,-0.474089,-0.484082,-0.47554,-0.447816,-0.45652,-0.465869,-0.500362,-0.470543,-0.507454,-0.475701,-0.529052,-0.499556,-0.474089,-0.509066,-0.473283,-0.516158,-0.453135,-0.473444,-0.475862,-0.482632,-0.523089,-0.487951,-0.487467,-0.489724,-0.512128,-0.514707,-0.488434,-0.499072,-0.491819,-0.493914,-0.499717,-0.540013,-0.494559,-0.520993,-0.506164,-0.518414,-0.490691,-0.49053,-0.509872,-0.537756,-0.497944,-0.494237,-0.500684,-0.488273,-0.522283,-0.534372,-0.528891,-0.482309,-0.489885,-0.532437,-0.524056,-0.482148,-0.486178,-0.475701,-0.52051,-0.486339,-0.490046,-0.505842,-0.507132,-0.490691,-0.499878,-0.563223,-0.513901,-0.530342,-0.496171,-0.487306,-0.527279,-0.490207,-0.486984,-0.483276,-0.47828,-0.492947,-0.518898,-0.487306,-0.5492,-0.533888,-0.491497,-0.494076,-0.545171,-0.503908,-0.493592,-0.504391,-0.529858,-0.497461,-0.491819,-0.479569,-0.48102,-0.478763,-0.481665,-0.494559,-0.469415,-0.484888,-0.472477,-0.520187,-0.48247,-0.46603,-0.476507,-0.460711,-0.516319,-0.461839,-0.434599,-0.467964,-0.42799,-0.471832,-0.441691,-0.476345,-0.419931,-0.459421,-0.429763,-0.405747,-0.407198,-0.405102,-0.401395,-0.391563,-0.38979,-0.417513,-0.407359,-0.401879,-0.422833,-0.435405,-0.518092,-0.495849,-0.535339,-0.548395,-0.608194,-0.63624,-0.630598,-0.651391,-0.617703,-0.630598,-0.640753,-0.639302,-0.646072,-0.642526,-0.622217,-0.648328,-0.645749,-0.633822,-0.65268,-0.653164,-0.632532,-0.654937,-0.620766,-0.61045,-0.597717,-0.592559,-0.591753,-0.536467,-0.532921,-0.496171,-0.497622,-0.501329,-0.467642,-0.474895,-0.500684,-0.520993,-0.473928,-0.487628,-0.48376,-0.500201,-0.525023,-0.483599,-0.481342,-0.488273,-0.51503,-0.480859,-0.466836,-0.467964,-0.461194,-0.461194,-0.470704,-0.465224,-0.468931,-0.464257,-0.45926,-0.471349,-0.481826,-0.470865,-0.468609,-0.470059,-0.469898,-0.454102,-0.452329,-0.49472,-0.443786,-0.501651,-0.457971,-0.461678,-0.489563,-0.499878,-0.465063,-0.500201,-0.462484,-0.496655,-0.497461,-0.456681,-0.484888,-0.458615,-0.463934,-0.453941,-0.443142,-0.451362,-0.514385,-0.440563,-0.485855,-0.492947,-0.448944,-0.486339,-0.458454,-0.454586,-0.461678,-0.482148,-0.468931,-0.452652,-0.459744,-0.490852,-0.484405,-0.45652,-0.448622,-0.478602,-0.501329,-0.478441,-0.498266,-0.458454,-0.504714,-0.447655,-0.511161,-0.469737,-0.506164,-0.461355,-0.465707,-0.461678,-0.444754,-0.501974,-0.450556,-0.47151,-0.447171,-0.450395,-0.439757,-0.466674,-0.447816,-0.486016,-0.455714,-0.467319,-0.450717,-0.454263,-0.484405,-0.449428,-0.441852,-0.449105,-0.441691,-0.437661,-0.445076,-0.452168,-0.473283,-0.446688,-0.452652,-0.466997,-0.466674,-0.472799,-0.458293,-0.505036,-0.452007,-0.453296,-0.452168,-0.488434,-0.452168,-0.501007,-0.452652,-0.446043,-0.478441,-0.458776,-0.439757,-0.484405,-0.452974,-0.484082,-0.500845,-0.455069,-0.453619,-0.490046,-0.446204,-0.447494,-0.483438,-0.468447,-0.424928,-0.47151,-0.437017,-0.474734,-0.471671,-0.448944,-0.490368,-0.432504,-0.465707,-0.44975,-0.47425,-0.474089,-0.496332,-0.431536,-0.494398,-0.484405,-0.424122,-0.427346,-0.426379,-0.482632,-0.469898,-0.4375,-0.469415,-0.467964,-0.44701,-0.473605,-0.427507,-0.440079,-0.475862,-0.465063,-0.47828,-0.490691,-0.428796,-0.419609,-0.48102,-0.463128,-0.462806,-0.486339,-0.436694,-0.438467,-0.491174
 10:46:31.,-0.476829,-0.481826,-0.468447,-0.468609,-0.415579,-0.444109,-0.469092,-0.421543,-0.435405,-0.474089,-0.448622,-0.439273,-0.44427,-0.474895,-0.436533,-0.476668,-0.429119,-0.435244,-0.457971,-0.46748,-0.471188,-0.430247,-0.487951,-0.472799,-0.429602,-0.436211,-0.456681,-0.426217,-0.441852,-0.470704,-0.432826,-0.439273,-0.449428,-0.486339,-0.45523,-0.450073,-0.438145,-0.447171,-0.496816,-0.44701,-0.507293,-0.439918,-0.434277,-0.479892,-0.477474,-0.455392,-0.476668,-0.450556,-0.490046,-0.451523,-0.465385,-0.50552,-0.469092,-0.502618,-0.472155,-0.496332,-0.461355,-0.527763,-0.457648,-0.462161,-0.525506,-0.481665,-0.52051,-0.488434,-0.510355,-0.488434,-0.50971,-0.486984,-0.49053,-0.503424,-0.492625,-0.481181,-0.495526,-0.501007,-0.478924,-0.544365,-0.531309,-0.501974,-0.550812,-0.537918,-0.515835,-0.493914,-0.513579,-0.528891,-0.503424,-0.521316,-0.483599,-0.556454,-0.543559,-0.506164,-0.535661,-0.515352,-0.520832,-0.522444,-0.522766,-0.537434,-0.537918,-0.546783,-0.517931,-0.549684,-0.525506,-0.522283,-0.51777,-0.501329,-0.539852,-0.520026,-0.541947,-0.544848,-0.507615,-0.496171,-0.572572,-0.505036,-0.544848,-0.531954,-0.522928,-0.55726,-0.505681,-0.546783,-0.515191,-0.525345,-0.505681,-0.499234,-0.546783,-0.550168,-0.499717,-0.530987,-0.508905,-0.508582,-0.494398,-0.555648,-0.551296,-0.506326,-0.553875,-0.554197,-0.525345,-0.521799,-0.489401,-0.500523,-0.559355,-0.517447,-0.536145,-0.532276,-0.550651,-0.541947,-0.560483,-0.520993,-0.552263,-0.550973,-0.518576,-0.507132,-0.530664,-0.542753,-0.507293,-0.51777,-0.544365,-0.537595,-0.538724,-0.546783,-0.533243,-0.483599,-0.534533,-0.559194,-0.490207,-0.507615,-0.510033,-0.502457,-0.512128,-0.508582,-0.503263,-0.505036,-0.535822,-0.507776,-0.495526,-0.531954,-0.515513,-0.519059,-0.499878,-0.501007,-0.497461,-0.515352,-0.514707,-0.540174,-0.495365,-0.502135,-0.511483,-0.494237,-0.525829,-0.536789,-0.508582,-0.54098,-0.494882,-0.485211,-0.535822,-0.500201,-0.471671,-0.49472,-0.495043,-0.528085,-0.496493,-0.512289,-0.497461,-0.530664,-0.523411,-0.501974,-0.533566,-0.501168,-0.501651,-0.494076,-0.514062,-0.52196,-0.538724,-0.512289,-0.492625,-0.484405,-0.536145,-0.498911,-0.488918,-0.499717,-0.549523,-0.481503,-0.501651,-0.506809,-0.534855,-0.48924,-0.538885,-0.491174,-0.521316,-0.493109,-0.532599,-0.526796,-0.541786,-0.506648,-0.492303,-0.504391,-0.540335,-0.486984,-0.50826,-0.50697,-0.523089,-0.479086,-0.491013,-0.491658,-0.478118,-0.53824,-0.500523,-0.53276,-0.543881,-0.504391,-0.497138,-0.490207,-0.492786,-0.468931,-0.493914,-0.533404,-0.486178,-0.506487,-0.490852,-0.490207,-0.529052,-0.518576,-0.527602,-0.482148,-0.540013,-0.53002,-0.518898,-0.524701,-0.483115,-0.506164,-0.521799,-0.51374,-0.512934,-0.486016,-0.526474,-0.515835,-0.49327,-0.521799,-0.473283,-0.482632,-0.496816,-0.491013,-0.529375,-0.508905,-0.511967,-0.484727,-0.509388,-0.500523,-0.500684,-0.530342,-0.496977,-0.485049,-0.497461,-0.54372,-0.497461,-0.525023,-0.494076,-0.470865,-0.491013,-0.493914,-0.486339,-0.53147,-0.481826,-0.51503,-0.508099,-0.496493,-0.499234,-0.481503,-0.515997,-0.501651,-0.47554,-0.482954,-0.491658,-0.49472,-0.474089,-0.512289,-0.54227,-0.530181,-0.508743,-0.490046,-0.497461,-0.487306,-0.49601,-0.529536,-0.487145,-0.497138,-0.492464,-0.480053,-0.49601,-0.520671,-0.522122,-0.489563,-0.536789,-0.482309,-0.510516,-0.491013,-0.491013,-0.535016,-0.529375,-0.502457,-0.487467,-0.503747,-0.52051,-0.532115,-0.477796,-0.493753,-0.533404,-0.555648,-0.496493,-0.496332,-0.519865,-0.536306,-0.499556,-0.510678,-0.487951,-0.495849,-0.533888,-0.503424,-0.525668,-0.491336,-0.542108,-0.512289,-0.500684,-0.551779,-0.532115,-0.491013,-0.496332,-0.529536,-0.536628,-0.492625,-0.536467,-0.532276,-0.528569,-0.497138,-0.513418,-0.525829,-0.532276,-0.527602,-0.49053,-0.515352,-0.519865,-0.515352,-0.502296,-0.537756,-0.532115,-0.49198,-0.540658,-0.526796,-0.535177,-0.499717,-0.4865,-0.492464,-0.500684,-0.499556,-0.499072,-0.488918,-0.536145,-0.490207,-0.488434,-0.50826,-0.486339,-0.528085,-0.489563,-0.490046,-0.530664,-0.506487,-0.47973,-0.506326,-0.488918,-0.533888,-0.478924,-0.536145,-0.517125,-0.485211,-0.540819,-0.524862,-0.502296,-0.526796,-0.508099,-0.497944,-0.482793,-0.540497,-0.528247,-0.487951,-0.544687,-0.49053,-0.485211,-0.534372,-0.520993,-0.497461,-0.536467,-0.497783,-0.504714,-0.47699,-0.493592,-0.537595,-0.506809,-0.491336,-0.53695,-0.535016,-0.528408,-0.548717,-0.481826,-0.535661,-0.519865,-0.50971,-0.481826,-0.540174,-0.527118,-0.488273,-0.54227,-0.510839,-0.48924,-0.5355,-0.522766,-0.476023,-0.522605,-0.502941,-0.523411,-0.535822,-0.484243,-0.481987,-0.470704,-0.508099,-0.485855,-0.528569,-0.534372,-0.534855,-0.504553,-0.529214,-0.515835,-0.49472,-0.500845,-0.512128,-0.499717,-0.47425,-0.530503,-0.503102,-0.486661,-0.483115,-0.532276,-0.48376,-0.533888,-0.483921,-0.495849,-0.543398,-0.506003,-0.50278,-0.489724,-0.511483,-0.499717,-0.533888,-0.53421,-0.531148,-0.503102,-0.513579,-0.506648,-0.497299,-0.528891,-0.51777,-0.528569,-0.516319,-0.532921,-0.523572,-0.497944,-0.535016,-0.530987,-0.521316,-0.521155,-0.492464,-0.48102,-0.482309,-0.465546,-0.47554,-0.52196,-0.473122,-0.481342,-0.506809,-0.483115,-0.524217,-0.472477,-0.516641,-0.521316,-0.472638,-0.476507,-0.470865,-0.519704,-0.518092,-0.467803,-0.525829,-0.484888,-0.466836,-0.484888,-0.530503,-0.463451,-0.48924,-0.491174,-0.488595,-0.511645,-0.465869,-0.514707,-0.461517,-0.468125,-0.457326,-0.509227,-0.514707,-0.461839,-0.507454,-0.500201,-0.508905,-0.521638,-0.482309,-0.501812,-0.481181,-0.469737,-0.48376,-0.474895,-0.498266,-0.470865,-0.453619,-0.511967,-0.469737,-0.467319,-0.501168,-0.521638,-0.488757,-0.529536,-0.53421,-0.47151,-0.486178,-0.5355,-0.480859,-0.496493,-0.524701,-0.534855,-0.470059,-0.493592,-0.481826,-0.523411,-0.492786,-0.524862,-0.528891,-0.53147,-0.546783,-0.486822,-0.49198,-0.525023,-0.539691,-0.511161,-0.501168,-0.533082,-0.542431,-0.50278,-0.506164,-0.553552,-0.518253,-0.48376,-0.499878,-0.489885,-0.539529,-0.548556,-0.503585,-0.49875,-0.494076,-0.497138,-0.488434,-0.488112,-0.488434,-0.487306,-0.522444,-0.538079,-0.481503,-0.514707,-0.540497,-0.514224,-0.530503,-0.506164,-0.537112,-0.514546,-0.499395,-0.491819,-0.535661,-0.511161,-0.534533,-0.495043,-0.492625,-0.498589,-0.48376,-0.52051,-0.481987,-0.512934,-0.485372,-0.490691,-0.520187,-0.485855,-0.525668,-0.539207,-0.481503,-0.524056,-0.488112,-0.526957,-0.490368,-0.494398,-0.483115,-0.494076,-0.485211,-0.478924,-0.517608,-0.530987,-0.470382,-0.462967,-0.508099,-0.489885,-0.497783,-0.497461,-0.459582,-0.487467,-0.487306,-0.48102,-0.472638,-0.488112,-0.432181,-0.400428,-0.423638,-0.417997,-0.397366,-0.41574,-0.426217,-0.395593,-0.421382,-0.399461,-0.446688,-0.401556,-0.479892,-0.427346,-0.491497,-0.495526,-0.53147,-0.575312,-0.602069,-0.607871,-0.633499,-0.642526,-0.705387,-0.704743,-0.711029,-0.705226,-0.67444,-0.711835,-0.732466,-0.683466,-0.732305,-0.736818,-0.693299,-0.716509,-0.667026,-0.669605,-0.709256,-0.6472,-0.622861,-0.643815,-0.636562,-0.606582,-0.59546,-0.542914,-0.520349,-0.506648,-0.519704,-0.546138,-0.518576,-0.511483,-0.527441,-0.469415,-0.481826,-0.52873,-0.494882,-0.475862,-0.476345,-0.518576,-0.468125,-0.468447,-0.468125,-0.468286,-0.479569,-0.446688,-0.470382,-0.511,-0.510194,-0.46877,-0.476829,-0.455392,-0.510033,-0.50971,-0.469253,-0.46474,-0.512451,-0.493592,-0.469092,-0.496171,-0.484405,-0.460388,-0.451523,-0.454908,-0.453457,-0.497461,-0.458293,-0.476829,-0.473928,-0.47425,-0.454102,-0.503263,-0.452813,-0.491819,-0.492786,-0.456198,-0.494882,-0.471188,-0.468125,-0.479247,-0.448944,-0.505842,-0.458776,-0.492303,-0.450234,-0.453296,-0.462484,-0.453457,-0.44701,-0.462967,-0.492141,-0.456359,-0.449105,-0.448783,-0.486984,-0.449911,-0.479408,-0.455392,-0.445559,-0.481987,-0.500201,-0.444915,-0.453296,-0.45652,-0.479892,-0.452329,-0.492786,-0.450717,-0.44427,-0.453135,-0.446527,-0.46748,-0.484405,-0.494398,-0.441369,-0.483438,-0.437178,-0.481665,-0.500201,-0.439434,-0.484405,-0.474089,-0.489079,-0.476023,-0.451523,-0.44298,-0.444109,-0.433309,-0.480859,-0.431698,-0.477151,-0.435244,-0.429763,-0.471671,-0.438951,-0.441046,-0.429763,-0.482954,-0.455553,-0.480375,-0.457809,-0.442497,-0.433471,-0.464579,-0.509388,-0.472316,-0.475701,-0.438145,-0.423316,-0.453941,-0.448783,-0.472961,-0.485855,-0.496655,-0.448622,-0.437823,-0.453135,-0.478924,-0.430731,-0.475217,-0.494076,-0.467158,-0.437984,-0.438467,-0.435405,-0.48924,-0.495043,-0.47973,-0.465546,-0.447332,-0.442658,-0.431375,-0.451523,-0.431536,-0.431536,-0.424767,-0.428635,-0.445237,-0.474411,-0.47554,-0.425734,-0.419125,-0.437017,-0.461194,-0.419448,-0.473444,-0.413162,-0.427185,-0.451523,-0.447171,-0.416224,-0.416708,-0.431053,-0.408004,-0.46877,-0.415257,-0.437339,-0.417513,-0.418964,-0.453135,-0.461194,-0.476184,-0.410744,-0.41977,-0.45523,-0.413323,-0.411389,-0.450073,-0.408165,-0.427185,-0.416385,-0.421543,-0.444754,-0.41574,-0.465707,-0.447816,-0.411711,-0.461839,-0.437017,-0.413484,-0.417997,-0.419125,-0.465063,-0.441852,-0.438951,-0.446688,-0.418803,-0.466191,-0.414773,-0.445237,-0.40478,-0.439112,-0.428313,-0.415096,-0.419609,-0.430086,-0.44427,-0.459421,-0.455069,-0.44298,-0.463612,-0.418642,-0.456842,-0.427507,-0.481342,-0.433309,-0.444592,-0.427668,-0.44298,-0.452007,-0.420898,-0.484566,-0.445237,-0.489563,-0.441691,-0.45378,-0.44975,-0.460066,-0.483276,-0.459099,-0.491174,-0.513257,-0.50971,-0.505036,-0.464257,-0.479086,-0.46877,-0.460872,-0.481503,-0.473605,-0.518576,-0.516158,-0.512934,-0.47699,-0.521316,-0.491497,-0.522283,-0.476507,-0.509549,-0.524539,-0.485372,-0.501007,-0.482793,-0.511645,-0.489401,-0.48779,-0.513095,-0.496493,-0.523089,-0.492303,-0.496816,-0.534855,-0.532599,-0.498266,-0.513901,-0.491819,-0.551941,-0.537756,-0.512289,-0.526635,-0.495204,-0.498911,-0.494076,-0.550973,-0.508099,-0.502941,-0.512934,-0.535177,-0.501974,-0.555648,-0.507776,-0.519381,-0.535016,-0.539046,-0.559516,-0.503908,-0.50423,-0.538079,-0.517608,-0.502618,-0.50423,-0.497299,-0.504069
 10:46:32.,-0.52873,-0.494882,-0.549523,-0.498105,-0.533243,-0.506326,-0.510516,-0.537595,-0.531148,-0.546622,-0.497783,-0.51374,-0.511322,-0.506003,-0.500684,-0.504553,-0.557743,-0.560483,-0.504875,-0.555003,-0.510033,-0.506164,-0.562901,-0.495849,-0.485211,-0.50697,-0.532599,-0.546783,-0.512451,-0.523411,-0.547427,-0.515835,-0.548878,-0.520026,-0.515835,-0.507776,-0.542431,-0.523895,-0.502941,-0.50826,-0.535016,-0.513901,-0.539368,-0.529536,-0.546783,-0.54501,-0.491174,-0.50423,-0.539207,-0.518092,-0.548395,-0.544365,-0.501007,-0.528408,-0.544848,-0.537756,-0.488434,-0.502457,-0.521477,-0.534049,-0.497299,-0.501651,-0.519059,-0.529536,-0.539691,-0.500523,-0.52051,-0.553069,-0.526474,-0.529858,-0.540013,-0.497299,-0.491819,-0.520993,-0.511645,-0.481342,-0.55452,-0.534694,-0.50826,-0.499717,-0.498911,-0.497299,-0.504714,-0.503908,-0.542431,-0.528891,-0.541786,-0.538401,-0.519059,-0.496977,-0.522122,-0.532921,-0.516158,-0.499395,-0.490368,-0.486984,-0.500362,-0.490852,-0.541947,-0.50552,-0.490852,-0.516803,-0.508099,-0.496332,-0.548072,-0.491174,-0.487467,-0.484405,-0.534855,-0.527118,-0.488273,-0.507132,-0.49198,-0.487628,-0.488918,-0.535177,-0.486984,-0.493109,-0.528085,-0.499072,-0.505842,-0.499072,-0.517286,-0.527924,-0.493753,-0.469737,-0.49472,-0.527924,-0.522928,-0.52051,-0.536145,-0.498911,-0.531793,-0.49601,-0.48102,-0.495688,-0.538079,-0.479569,-0.53147,-0.503424,-0.490852,-0.530342,-0.488757,-0.535177,-0.526474,-0.514385,-0.500523,-0.491658,-0.498589,-0.543237,-0.535822,-0.482793,-0.489724,-0.53002,-0.528247,-0.522283,-0.485533,-0.482793,-0.520187,-0.47699,-0.480536,-0.486178,-0.539207,-0.500523,-0.539207,-0.524539,-0.487628,-0.530987,-0.494398,-0.485855,-0.498911,-0.496332,-0.479247,-0.524056,-0.526474,-0.491819,-0.481181,-0.498428,-0.531148,-0.537112,-0.488273,-0.499072,-0.497461,-0.492464,-0.500684,-0.520349,-0.542753,-0.524539,-0.526957,-0.500523,-0.52873,-0.505036,-0.535177,-0.470543,-0.480375,-0.498911,-0.49875,-0.509066,-0.529375,-0.491658,-0.500684,-0.494398,-0.493109,-0.526474,-0.509388,-0.496655,-0.479892,-0.530503,-0.504069,-0.519543,-0.536145,-0.49875,-0.532276,-0.494076,-0.544526,-0.504875,-0.49327,-0.520993,-0.529697,-0.525345,-0.496655,-0.519543,-0.496332,-0.488918,-0.481342,-0.479408,-0.522605,-0.491497,-0.485533,-0.505359,-0.511322,-0.494559,-0.497944,-0.536628,-0.489079,-0.502618,-0.51648,-0.496816,-0.539046,-0.484566,-0.510678,-0.482632,-0.516319,-0.482309,-0.50149,-0.54775,-0.523089,-0.533566,-0.515997,-0.502135,-0.533404,-0.519865,-0.530342,-0.520993,-0.503747,-0.495043,-0.487145,-0.507615,-0.531631,-0.502296,-0.485049,-0.53421,-0.482793,-0.532599,-0.497783,-0.487306,-0.533727,-0.511161,-0.496332,-0.491497,-0.492625,-0.509066,-0.53002,-0.530987,-0.486984,-0.47828,-0.550973,-0.486984,-0.53276,-0.544687,-0.495849,-0.490852,-0.500201,-0.506648,-0.539207,-0.525184,-0.494076,-0.489563,-0.526474,-0.503424,-0.500523,-0.480214,-0.536145,-0.539046,-0.532115,-0.50278,-0.541302,-0.4865,-0.491658,-0.508099,-0.497138,-0.492141,-0.543559,-0.520026,-0.484082,-0.538401,-0.540819,-0.477957,-0.539852,-0.489079,-0.51922,-0.499234,-0.492141,-0.515191,-0.506648,-0.505036,-0.495365,-0.49198,-0.49053,-0.488112,-0.523733,-0.499234,-0.514224,-0.508099,-0.498911,-0.476668,-0.478602,-0.522605,-0.494398,-0.532276,-0.506648,-0.521155,-0.511322,-0.485694,-0.522605,-0.488273,-0.494076,-0.529052,-0.50697,-0.535339,-0.526957,-0.513095,-0.488434,-0.485855,-0.509388,-0.493109,-0.488273,-0.525829,-0.519381,-0.486339,-0.480053,-0.489401,-0.49601,-0.498105,-0.487306,-0.524056,-0.472961,-0.466836,-0.515191,-0.492625,-0.488595,-0.478763,-0.535983,-0.477313,-0.481826,-0.535016,-0.523089,-0.507132,-0.483921,-0.511322,-0.510355,-0.4865,-0.475378,-0.462967,-0.466997,-0.46603,-0.45652,-0.478118,-0.514224,-0.512612,-0.507132,-0.488918,-0.464579,-0.48376,-0.480697,-0.48376,-0.512612,-0.467642,-0.459582,-0.478118,-0.486984,-0.442497,-0.460872,-0.483276,-0.481987,-0.469253,-0.508743,-0.466674,-0.499717,-0.522766,-0.527279,-0.495043,-0.488112,-0.516803,-0.483921,-0.473122,-0.499717,-0.470382,-0.466997,-0.477957,-0.474089,-0.514062,-0.537273,-0.480053,-0.535661,-0.526474,-0.488112,-0.485211,-0.49327,-0.487628,-0.492947,-0.507776,-0.491819,-0.484243,-0.538562,-0.489079,-0.527441,-0.491013,-0.541786,-0.496493,-0.496816,-0.54501,-0.535983,-0.503747,-0.550973,-0.50826,-0.541786,-0.506487,-0.507132,-0.515352,-0.535822,-0.506326,-0.508099,-0.50697,-0.544365,-0.498911,-0.539529,-0.533888,-0.498105,-0.543559,-0.52873,-0.520349,-0.516319,-0.500845,-0.546622,-0.507293,-0.506326,-0.498589,-0.495526,-0.536467,-0.510194,-0.551779,-0.491336,-0.555325,-0.520349,-0.502941,-0.510355,-0.528408,-0.54775,-0.536306,-0.497461,-0.533082,-0.549362,-0.513418,-0.518898,-0.492786,-0.559516,-0.488918,-0.507776,-0.533888,-0.534049,-0.530342,-0.493592,-0.548556,-0.49875,-0.534372,-0.510516,-0.471026,-0.471671,-0.510516,-0.502296,-0.485533,-0.460388,-0.507937,-0.457971,-0.453457,-0.460872,-0.444592,-0.442497,-0.476184,-0.445559,-0.424444,-0.460066,-0.439757,-0.394142,-0.437984,-0.371899,-0.416063,-0.385438,-0.369964,-0.406069,-0.42654,-0.46603,-0.462323,-0.472316,-0.533727,-0.535339,-0.5845,-0.598684,-0.622378,-0.650424,-0.666703,-0.67718,-0.704098,-0.729081,-0.723762,-0.715864,-0.729243,-0.727147,-0.721828,-0.727953,-0.70845,-0.71393,-0.735529,-0.739236,-0.73295,-0.702486,-0.712802,-0.641881,-0.651552,-0.594654,-0.609161,-0.574345,-0.576602,-0.522444,-0.519704,-0.559194,-0.519381,-0.511,-0.49053,-0.526796,-0.521155,-0.492303,-0.522122,-0.485211,-0.532437,-0.508582,-0.487306,-0.485211,-0.535016,-0.480053,-0.483599,-0.525184,-0.524217,-0.539368,-0.488112,-0.466352,-0.502618,-0.493431,-0.484082,-0.476507,-0.483276,-0.472799,-0.477313,-0.52325,-0.454263,-0.46329,-0.458776,-0.460872,-0.506164,-0.507454,-0.52051,-0.461517,-0.470865,-0.507454,-0.463773,-0.521316,-0.499395,-0.463612,-0.468125,-0.466352,-0.462484,-0.499717,-0.513901,-0.460066,-0.458615,-0.474895,-0.503747,-0.465546,-0.50697,-0.467319,-0.460549,-0.464579,-0.457487,-0.45104,-0.503263,-0.461517,-0.481665,-0.468931,-0.463934,-0.480214,-0.505036,-0.457165,-0.454425,-0.454908,-0.457971,-0.500362,-0.45249,-0.444915,-0.46329,-0.455875,-0.461839,-0.448944,-0.466836,-0.458776,-0.449589,-0.484888,-0.441369,-0.506487,-0.491336,-0.448138,-0.500684,-0.476184,-0.453619,-0.491013,-0.488757,-0.465224,-0.438951,-0.489563,-0.451362,-0.452007,-0.480697,-0.465707,-0.488112,-0.484888,-0.45926,-0.449911,-0.472961,-0.455392,-0.448783,-0.452329,-0.446043,-0.460549,-0.452974,-0.443786,-0.453619,-0.452813,-0.453941,-0.47151,-0.481987,-0.448138,-0.440563,-0.49472,-0.452974,-0.432826,-0.458454,-0.434115,-0.444754,-0.438629,-0.456842,-0.468447,-0.474089,-0.465063,-0.437661,-0.464579,-0.42799,-0.446365,-0.430892,-0.435405,-0.47151,-0.465063,-0.461839,-0.429763,-0.45652,-0.443786,-0.442497,-0.432987,-0.495204,-0.462967,-0.442336,-0.435888,-0.418158,-0.447494,-0.425089,-0.466997,-0.474089,-0.462967,-0.475217,-0.425089,-0.455714,-0.436856,-0.42251,-0.412356,-0.469092,-0.456359,-0.431375,-0.416063,-0.413323,-0.410905,-0.425411,-0.416385,-0.453296,-0.47151,-0.40881,-0.400428,-0.408487,-0.452652,-0.412517,-0.457326,-0.41026,-0.437823,-0.413323,-0.424444,-0.397204,-0.44298,-0.397527,-0.408165,-0.426862,-0.420737,-0.454263,-0.419931,-0.434599,-0.436856,-0.411227,-0.418642,-0.440724,-0.410744,-0.451362,-0.416063,-0.420415,-0.435405,-0.426379,-0.401556,-0.443948,-0.403329,-0.408004,-0.43605,-0.417836,-0.407037,-0.464579,-0.41703,-0.415902,-0.468125,-0.45249,-0.462645,-0.424606,-0.462484,-0.460872,-0.422671,-0.450073,-0.42799,-0.44153,-0.476184,-0.430569,-0.489724,-0.450073,-0.455875,-0.461678,-0.472638,-0.498105,-0.500684,-0.455392,-0.482632,-0.485211,-0.458776,-0.452652,-0.517608,-0.499717,-0.462484,-0.472477,-0.519059,-0.476023,-0.474089,-0.477957,-0.487145,-0.491658,-0.497299,-0.526151,-0.501168,-0.538562,-0.505681,-0.530987,-0.494076,-0.491336,-0.50552,-0.544365,-0.509388,-0.515835,-0.552746,-0.511967,-0.507776,-0.526474,-0.546783,-0.552424,-0.553552,-0.505842,-0.519059,-0.515191,-0.524056,-0.518414,-0.518414,-0.551618,-0.516641,-0.568381,-0.522444,-0.516964,-0.573862,-0.547911,-0.531309,-0.570638,-0.564029,-0.521799,-0.538079,-0.534855,-0.51648,-0.513095,-0.559194,-0.516803,-0.535983,-0.560322,-0.528247,-0.574023,-0.547427,-0.546622,-0.533566,-0.535822,-0.563546,-0.563062,-0.575151,-0.511322,-0.553875,-0.558066,-0.498911,-0.566608,-0.514385,-0.523733,-0.527441,-0.525668,-0.55452,-0.526474,-0.530987,-0.555809,-0.555487,-0.526151,-0.546299,-0.568059,-0.555487,-0.542108,-0.558549,-0.511161,-0.514385,-0.525023,-0.522283,-0.521477,-0.517931,-0.568865,-0.552424,-0.5355,-0.573862,-0.516319,-0.565319,-0.513418,-0.517286,-0.534533,-0.501651,-0.553714,-0.544365,-0.529375,-0.510678,-0.549684,-0.524701,-0.563546,-0.51777,-0.515191,-0.56274,-0.563868,-0.511967,-0.563868,-0.511806,-0.510355,-0.518414,-0.515674,-0.505036,-0.51503,-0.537918,-0.505036,-0.513257,-0.545332,-0.547266,-0.537918,-0.521316,-0.518253,-0.561289,-0.512128,-0.507937,-0.511322,-0.502618,-0.503585,-0.493753,-0.542753,-0.511645,-0.506326,-0.514385,-0.526474,-0.52599,-0.523733,-0.503263,-0.552263,-0.508743,-0.521155,-0.509549,-0.545493,-0.499234,-0.49601,-0.511322,-0.489401,-0.537434,-0.504875,-0.500201,-0.556131,-0.524378,-0.505681,-0.521155,-0.514546,-0.529858,-0.508743,-0.511967,-0.512128,-0.531148,-0.498589,-0.519059,-0.526796,-0.53421,-0.537756,-0.510355,-0.499717,-0.554681,-0.499556,-0.499717,-0.512934,-0.529536,-0.503908,-0.534855,-0.502457,-0.534533,-0.489724,-0.493431,-0.507293,-0.53421,-0.533888,-0.486016,-0.512934,-0.516964,-0.50149,-0.553552,-0.502135,-0.519381,-0.536306,-0.556454,-0.532921,-0.501974,-0.546299,-0.533404,-0.530987,-0.500039,-0.518737,-0.547589,-0.514062,-0.510678,-0.497461,-0.53824,-0.505842,-0.530826,-0.511,-0.539046,-0.495526,-0.556615,-0.500362,-0.532276,-0.49472,-0.499717,-0.488918,-0.486822,-0.514707,-0.52196,-0.536306,-0.524378,-0.495849,-0.540497,-0.53002
 10:46:33.,-0.535177,-0.50149,-0.508743,-0.510033,-0.525668,-0.551941,-0.501974,-0.514224,-0.540013,-0.491336,-0.494076,-0.497138,-0.501007,-0.495204,-0.514546,-0.506164,-0.502941,-0.499395,-0.531309,-0.496977,-0.507615,-0.503102,-0.482632,-0.491658,-0.520993,-0.501168,-0.517608,-0.509227,-0.50826,-0.535983,-0.504069,-0.543237,-0.496816,-0.506809,-0.550812,-0.530181,-0.500523,-0.510194,-0.540819,-0.493109,-0.506487,-0.514224,-0.497622,-0.507454,-0.496493,-0.490691,-0.538562,-0.551296,-0.495688,-0.50149,-0.544204,-0.509388,-0.509872,-0.508905,-0.528085,-0.535661,-0.53276,-0.48924,-0.491336,-0.497622,-0.528247,-0.535822,-0.529858,-0.494076,-0.511483,-0.507937,-0.557098,-0.500523,-0.543559,-0.503908,-0.528891,-0.509066,-0.527118,-0.509388,-0.523572,-0.54501,-0.522444,-0.514224,-0.493753,-0.485211,-0.510033,-0.545493,-0.495526,-0.560967,-0.548395,-0.511806,-0.537273,-0.500684,-0.494398,-0.491819,-0.504875,-0.49198,-0.486661,-0.520671,-0.502618,-0.532921,-0.507776,-0.494398,-0.496493,-0.496493,-0.516641,-0.506326,-0.516803,-0.509227,-0.533727,-0.51777,-0.501812,-0.529536,-0.477151,-0.543398,-0.50552,-0.538562,-0.538079,-0.499395,-0.497944,-0.501974,-0.534533,-0.502941,-0.524056,-0.515352,-0.536789,-0.499556,-0.489563,-0.525345,-0.529214,-0.524217,-0.514224,-0.487145,-0.504391,-0.503747,-0.533243,-0.498428,-0.53147,-0.509872,-0.507937,-0.498589,-0.492786,-0.524701,-0.503585,-0.518414,-0.509872,-0.492625,-0.491174,-0.493109,-0.533243,-0.529536,-0.501974,-0.530664,-0.512289,-0.491174,-0.532921,-0.515997,-0.489079,-0.526151,-0.485372,-0.488757,-0.48779,-0.52051,-0.489401,-0.49198,-0.499234,-0.540174,-0.498266,-0.49875,-0.511322,-0.533404,-0.500684,-0.496655,-0.505197,-0.534694,-0.506326,-0.495849,-0.511322,-0.495204,-0.474895,-0.468447,-0.486178,-0.526474,-0.519381,-0.522122,-0.480536,-0.485533,-0.533404,-0.524378,-0.472477,-0.482632,-0.527924,-0.474734,-0.515997,-0.474572,-0.490207,-0.475862,-0.52051,-0.524378,-0.503585,-0.532599,-0.510355,-0.47828,-0.529052,-0.477151,-0.486016,-0.486822,-0.512128,-0.475056,-0.497138,-0.486984,-0.46474,-0.505197,-0.522928,-0.457326,-0.468931,-0.472799,-0.489079,-0.508421,-0.494237,-0.482632,-0.466513,-0.525829,-0.522122,-0.47554,-0.509872,-0.513257,-0.466352,-0.466352,-0.50278,-0.517125,-0.459421,-0.489885,-0.47151,-0.488757,-0.485533,-0.525023,-0.486822,-0.481826,-0.491497,-0.491497,-0.48247,-0.487306,-0.47554,-0.519381,-0.481987,-0.481826,-0.488918,-0.524056,-0.527279,-0.492625,-0.499878,-0.536306,-0.500201,-0.546783,-0.524862,-0.501812,-0.510033,-0.546783,-0.511806,-0.522283,-0.509549,-0.505359,-0.517447,-0.496332,-0.542753,-0.506648,-0.50826,-0.508743,-0.506003,-0.54501,-0.506809,-0.558549,-0.552102,-0.495688,-0.541947,-0.487951,-0.492303,-0.505036,-0.525829,-0.522766,-0.505036,-0.527602,-0.533727,-0.550973,-0.500039,-0.498266,-0.54227,-0.525023,-0.51922,-0.523411,-0.535661,-0.493109,-0.499234,-0.506648,-0.520026,-0.545977,-0.500201,-0.492464,-0.519059,-0.509872,-0.528891,-0.499234,-0.497299,-0.55323,-0.507937,-0.505681,-0.514707,-0.497138,-0.536789,-0.502457,-0.500039,-0.495849,-0.546944,-0.478441,-0.48247,-0.494237,-0.483599,-0.483438,-0.473928,-0.527441,-0.485855,-0.481181,-0.486661,-0.463451,-0.473928,-0.484082,-0.444754,-0.453457,-0.472799,-0.426701,-0.437984,-0.464579,-0.466513,-0.453619,-0.403329,-0.390273,-0.39527,-0.40478,-0.432181,-0.401556,-0.385277,-0.385599,-0.406553,-0.415096,-0.434438,-0.465546,-0.476829,-0.517286,-0.571605,-0.57096,-0.608355,-0.686207,-0.66896,-0.667993,-0.738591,-0.690397,-0.741815,-0.702325,-0.694427,-0.725052,-0.739881,-0.681532,-0.699585,-0.706999,-0.694427,-0.694266,-0.701197,-0.666864,-0.705549,-0.653647,-0.633016,-0.62544,-0.631565,-0.607388,-0.557098,-0.56548,-0.520993,-0.521316,-0.499395,-0.504391,-0.485694,-0.509066,-0.495043,-0.484888,-0.495849,-0.501007,-0.486339,-0.508743,-0.532599,-0.510355,-0.474089,-0.484405,-0.463451,-0.506164,-0.466191,-0.491658,-0.500039,-0.476023,-0.487951,-0.500523,-0.482309,-0.467803,-0.512451,-0.470704,-0.472316,-0.500684,-0.50278,-0.503263,-0.471671,-0.446365,-0.465224,-0.448783,-0.450073,-0.467158,-0.465546,-0.495204,-0.514062,-0.499234,-0.466674,-0.496977,-0.462645,-0.508099,-0.488112,-0.46474,-0.452007,-0.477796,-0.498266,-0.436533,-0.45523,-0.481826,-0.455714,-0.484243,-0.462484,-0.452813,-0.470221,-0.506164,-0.49472,-0.456036,-0.462806,-0.454908,-0.492625,-0.452974,-0.449428,-0.439757,-0.453296,-0.453135,-0.464257,-0.511645,-0.487306,-0.44153,-0.460872,-0.462161,-0.447655,-0.447816,-0.496977,-0.442819,-0.447816,-0.470865,-0.455553,-0.454425,-0.448622,-0.465224,-0.446365,-0.478441,-0.495688,-0.483921,-0.496493,-0.478924,-0.489401,-0.484727,-0.470382,-0.441207,-0.453457,-0.478763,-0.447494,-0.483921,-0.449105,-0.48376,-0.446365,-0.432181,-0.46748,-0.437339,-0.449105,-0.437339,-0.489079,-0.446688,-0.442175,-0.481181,-0.441691,-0.434921,-0.483921,-0.438306,-0.466674,-0.466836,-0.487467,-0.42928,-0.427668,-0.43879,-0.431698,-0.425411,-0.445721,-0.437984,-0.448944,-0.485049,-0.453296,-0.428635,-0.44701,-0.462161,-0.437984,-0.481987,-0.4375,-0.463773,-0.432826,-0.478763,-0.464096,-0.465063,-0.48376,-0.462645,-0.463128,-0.435727,-0.418803,-0.419287,-0.433632,-0.470704,-0.421865,-0.434599,-0.454586,-0.42928,-0.464257,-0.415257,-0.441207,-0.414612,-0.46329,-0.409777,-0.415418,-0.458293,-0.418803,-0.408971,-0.456842,-0.426056,-0.417191,-0.45926,-0.446204,-0.432504,-0.439273,-0.415257,-0.397366,-0.411711,-0.406069,-0.393981,-0.405425,-0.448944,-0.401073,-0.442336,-0.447977,-0.40204,-0.429763,-0.448944,-0.39253,-0.392369,-0.435082,-0.390435,-0.396076,-0.394142,-0.43202,-0.434599,-0.389468,-0.40204,-0.450556,-0.427346,-0.405264,-0.434277,-0.407198,-0.413323,-0.397527,-0.424444,-0.449589,-0.413,-0.397043,-0.448461,-0.42106,-0.428152,-0.398171,-0.412194,-0.427668,-0.45523,-0.421704,-0.444915,-0.418964,-0.474572,-0.464418,-0.413323,-0.422027,-0.452329,-0.419931,-0.48102,-0.446204,-0.432342,-0.437984,-0.500684,-0.445559,-0.486339,-0.463612,-0.478602,-0.492786,-0.466352,-0.483921,-0.50971,-0.500362,-0.464257,-0.459582,-0.514707,-0.527118,-0.466674,-0.47699,-0.489401,-0.490368,-0.501007,-0.527602,-0.49198,-0.495043,-0.5355,-0.529858,-0.493914,-0.549684,-0.502135,-0.511,-0.510194,-0.555164,-0.537434,-0.53695,-0.505842,-0.544687,-0.518737,-0.541464,-0.515191,-0.541625,-0.51503,-0.508582,-0.564835,-0.565964,-0.564191,-0.538885,-0.529052,-0.523895,-0.515835,-0.569671,-0.515835,-0.514224,-0.523733,-0.52051,-0.531631,-0.564191,-0.531954,-0.517931,-0.524217,-0.527118,-0.518414,-0.525506,-0.526151,-0.523895,-0.560806,-0.574345,-0.559355,-0.514707,-0.533727,-0.575312,-0.522283,-0.527441,-0.567414,-0.531793,-0.51503,-0.521155,-0.520832,-0.527924,-0.534049,-0.526312,-0.526312,-0.575151,-0.515997,-0.528891,-0.530664,-0.520832,-0.551135,-0.522444,-0.523089,-0.51922,-0.534533,-0.564996,-0.517125,-0.570799,-0.52599,-0.54775,-0.518414,-0.510033,-0.552746,-0.554036,-0.511645,-0.541464,-0.522444,-0.578536,-0.521638,-0.557421,-0.524378,-0.548878,-0.558227,-0.52196,-0.525345,-0.563546,-0.56274,-0.555003,-0.498428,-0.564513,-0.546783,-0.556131,-0.519543,-0.512451,-0.547589,-0.516158,-0.509388,-0.517931,-0.552102,-0.570638,-0.521316,-0.533082,-0.567092,-0.499556,-0.549684,-0.534372,-0.50826,-0.54775,-0.535339,-0.56,-0.514868,-0.506164,-0.511,-0.54372,-0.548717,-0.524217,-0.529375,-0.512289,-0.505359,-0.532599,-0.550812,-0.501168,-0.494882,-0.539046,-0.507615,-0.520832,-0.53276,-0.509549,-0.523572,-0.52599,-0.518576,-0.50552,-0.511967,-0.564191,-0.509549,-0.517447,-0.571283,-0.494076,-0.509872,-0.498911,-0.524539,-0.540497,-0.511645,-0.524378,-0.497944,-0.55049,-0.555809,-0.517286,-0.540174,-0.545493,-0.536789,-0.506003,-0.534855,-0.503585,-0.534694,-0.547266,-0.505359,-0.500201,-0.505197,-0.53147,-0.507293,-0.550812,-0.539368,-0.542108,-0.537112,-0.493109,-0.511161,-0.554197,-0.50552,-0.521155,-0.506648,-0.523572,-0.522605,-0.534533,-0.533566,-0.492303,-0.531793,-0.516158,-0.540819,-0.531954,-0.510355,-0.538885,-0.499878,-0.50278,-0.496493,-0.50278,-0.544848,-0.497944,-0.535177,-0.507937,-0.511806,-0.498428,-0.522766,-0.497622,-0.554681,-0.560483,-0.536789,-0.499072,-0.51503,-0.554358,-0.497783,-0.510355,-0.547266,-0.496332,-0.555487,-0.506809,-0.505197,-0.515352,-0.540174,-0.506164,-0.516641,-0.51648,-0.54775,-0.514707,-0.497461,-0.497622,-0.508743,-0.561773,-0.491013,-0.496816,-0.541947,-0.540174,-0.508743,-0.500039,-0.549362,-0.496171,-0.524539,-0.540013,-0.500684,-0.514707,-0.536628,-0.50423,-0.507132,-0.501974,-0.507454,-0.51648,-0.54775,-0.50552,-0.510839,-0.504391,-0.530826,-0.502618,-0.520993,-0.549845,-0.540497,-0.549684,-0.505842,-0.522605,-0.545493,-0.504069,-0.501007,-0.563062,-0.541625,-0.500362,-0.517931,-0.509227,-0.50423,-0.518092,-0.538562,-0.496332,-0.503585,-0.522605,-0.497299,-0.499072,-0.501168,-0.491497,-0.50149,-0.50149,-0.501812,-0.522283,-0.535016,-0.498105,-0.502457,-0.506648,-0.494398,-0.500684,-0.550812,-0.550006,-0.558388,-0.507615,-0.507776,-0.522766,-0.537273,-0.507293,-0.505842,-0.499878,-0.492464,-0.484727,-0.507776,-0.491658,-0.49472,-0.541786,-0.538724,-0.503102,-0.546944,-0.509066,-0.506648,-0.531954,-0.54227,-0.509388,-0.505197,-0.540013,-0.477957,-0.494559,-0.494237,-0.497622,-0.526474,-0.494237,-0.492786,-0.534049,-0.55871,-0.551457,-0.499234,-0.541947,-0.533727,-0.500039,-0.497138,-0.500039,-0.488273,-0.539046,-0.496816,-0.50552,-0.538401,-0.503585,-0.519059,-0.517286,-0.512289,-0.547911,-0.534049,-0.498266,-0.531631,-0.494398,-0.511483,-0.492625,-0.52873,-0.498266,-0.485533,-0.522605,-0.501168,-0.506809,-0.491658,-0.496332,-0.495526,-0.493431,-0.542914,-0.531793,-0.485533,-0.469415,-0.545171,-0.494076,-0.48376,-0.523572,-0.482793,-0.507132,-0.535016,-0.510355,-0.485211,-0.494559,-0.504714,-0.539207,-0.503908,-0.490368,-0.494076,-0.49327,-0.482954,-0.500362,-0.487306,-0.488434,-0.485049,-0.499717,-0.500684,-0.496655,-0.503102,-0.482632,-0.470543,-0.480053,-0.483115,-0.496655,-0.4865,-0.475701,-0.476829
 10:46:34.,-0.469092,-0.491336,-0.519059,-0.486661,-0.486661,-0.517608,-0.475217,-0.532276,-0.489401,-0.461517,-0.520832,-0.493592,-0.475056,-0.523895,-0.46748,-0.500201,-0.465869,-0.503102,-0.523733,-0.507132,-0.47151,-0.457003,-0.465385,-0.487145,-0.503424,-0.478118,-0.505036,-0.469092,-0.463128,-0.480536,-0.473283,-0.459421,-0.471188,-0.474734,-0.513418,-0.510839,-0.457003,-0.469898,-0.484243,-0.497461,-0.46603,-0.475378,-0.488434,-0.46329,-0.48924,-0.536306,-0.477151,-0.485533,-0.487145,-0.487145,-0.521316,-0.492947,-0.530826,-0.485855,-0.494398,-0.484727,-0.524378,-0.543237,-0.52873,-0.498105,-0.523089,-0.548717,-0.510355,-0.508421,-0.514224,-0.49327,-0.534694,-0.504553,-0.535661,-0.501007,-0.495043,-0.494398,-0.509872,-0.534694,-0.499395,-0.490207,-0.503747,-0.542431,-0.490852,-0.510678,-0.504391,-0.505197,-0.533566,-0.499072,-0.542108,-0.497622,-0.523895,-0.527763,-0.526151,-0.511161,-0.484405,-0.490046,-0.510033,-0.531148,-0.539207,-0.499234,-0.54501,-0.531309,-0.551457,-0.506487,-0.489563,-0.51648,-0.499234,-0.549684,-0.522283,-0.541141,-0.494237,-0.544204,-0.512451,-0.526151,-0.499717,-0.55726,-0.508421,-0.499072,-0.494882,-0.539529,-0.523089,-0.495849,-0.492625,-0.479086,-0.552585,-0.523572,-0.466513,-0.477313,-0.467803,-0.49472,-0.504875,-0.46603,-0.465869,-0.475217,-0.446043,-0.446043,-0.480214,-0.43476,-0.455714,-0.462161,-0.46603,-0.406069,-0.413323,-0.428796,-0.427668,-0.380764,-0.4238,-0.371899,-0.362066,-0.391241,-0.382214,-0.387695,-0.420576,-0.461678,-0.436533,-0.475378,-0.50971,-0.570799,-0.61448,-0.660095,-0.605776,-0.644299,-0.705065,-0.673795,-0.743749,-0.696683,-0.736496,-0.729887,-0.694427,-0.697167,-0.704259,-0.711029,-0.707644,-0.730693,-0.69217,-0.681049,-0.67847,-0.65671,-0.655259,-0.64994,-0.599329,-0.589335,-0.560161,-0.566769,-0.586434,-0.555487,-0.513901,-0.540335,-0.488918,-0.491336,-0.494076,-0.48247,-0.480053,-0.533727,-0.473444,-0.487145,-0.499556,-0.461194,-0.479408,-0.469576,-0.472316,-0.479569,-0.503263,-0.485211,-0.462967,-0.472961,-0.502296,-0.511,-0.475862,-0.458615,-0.452168,-0.503747,-0.496171,-0.481181,-0.493914,-0.507132,-0.464579,-0.459744,-0.485533,-0.50278,-0.460227,-0.45249,-0.478118,-0.507293,-0.455714,-0.459744,-0.482954,-0.48102,-0.463451,-0.449267,-0.461839,-0.445721,-0.471188,-0.455714,-0.458938,-0.487628,-0.499395,-0.445237,-0.458938,-0.496977,-0.456681,-0.487145,-0.454263,-0.466513,-0.486339,-0.453619,-0.445076,-0.438145,-0.448622,-0.454747,-0.486339,-0.495204,-0.444109,-0.452168,-0.468447,-0.459582,-0.439273,-0.462,-0.436694,-0.444915,-0.4483,-0.472316,-0.429763,-0.478602,-0.44701,-0.447171,-0.448138,-0.437178,-0.471671,-0.448783,-0.481987,-0.432342,-0.486339,-0.433954,-0.474895,-0.474089,-0.450717,-0.478441,-0.423638,-0.488273,-0.424283,-0.454586,-0.448461,-0.469576,-0.483276,-0.44024,-0.444754,-0.479408,-0.486822,-0.45104,-0.478602,-0.446527,-0.469253,-0.445721,-0.494076,-0.470704,-0.452329,-0.469253,-0.439273,-0.485372,-0.430892,-0.450073,-0.434921,-0.470059,-0.452652,-0.429763,-0.430086,-0.474089,-0.412839,-0.474895,-0.468931,-0.472477,-0.44427,-0.433309,-0.46877,-0.41703,-0.427668,-0.418481,-0.427829,-0.443303,-0.46877,-0.422349,-0.429763,-0.422671,-0.437984,-0.451684,-0.428958,-0.453296,-0.435244,-0.468286,-0.416869,-0.421221,-0.464579,-0.441691,-0.457487,-0.469092,-0.422994,-0.406875,-0.434921,-0.406714,-0.425089,-0.411389,-0.398977,-0.45652,-0.414935,-0.387856,-0.408326,-0.428474,-0.415902,-0.400589,-0.425411,-0.41977,-0.44024,-0.414773,-0.392369,-0.45378,-0.410744,-0.397849,-0.427185,-0.417352,-0.432504,-0.388178,-0.403974,-0.467158,-0.420576,-0.432504,-0.396076,-0.408004,-0.399139,-0.439596,-0.437017,-0.411389,-0.395915,-0.447655,-0.439918,-0.407037,-0.425734,-0.377862,-0.416224,-0.395109,-0.396398,-0.447494,-0.418481,-0.415579,-0.394787,-0.438951,-0.401234,-0.407842,-0.456359,-0.407681,-0.466836,-0.458293,-0.395915,-0.39382,-0.437339,-0.440563,-0.446204,-0.418964,-0.460549,-0.414612,-0.452329,-0.4375,-0.422994,-0.440885,-0.440079,-0.441369,-0.473767,-0.450878,-0.448622,-0.484566,-0.492947,-0.48247,-0.466352,-0.474411,-0.447171,-0.453135,-0.476668,-0.468609,-0.510516,-0.51374,-0.50278,-0.512289,-0.518576,-0.500523,-0.480697,-0.538401,-0.474089,-0.524539,-0.476668,-0.500039,-0.484405,-0.490852,-0.535339,-0.538724,-0.532921,-0.518898,-0.496655,-0.541625,-0.500201,-0.550006,-0.504553,-0.511,-0.556615,-0.541625,-0.512773,-0.54646,-0.52873,-0.579825,-0.549362,-0.560322,-0.548878,-0.564513,-0.523411,-0.508905,-0.55452,-0.508743,-0.542431,-0.514546,-0.497944,-0.562095,-0.520832,-0.531793,-0.538562,-0.515674,-0.514385,-0.541786,-0.544848,-0.523411,-0.564029,-0.527924,-0.55049,-0.522283,-0.56,-0.56145,-0.511161,-0.557904,-0.541947,-0.500201,-0.560483,-0.51777,-0.527118,-0.519865,-0.54646,-0.567575,-0.57499,-0.556293,-0.520187,-0.506326,-0.520993,-0.507776,-0.510516,-0.514385,-0.48779,-0.545171,-0.514868,-0.527441,-0.523895,-0.551618,-0.555648,-0.545816,-0.559516,-0.56274,-0.506164,-0.5492,-0.505359,-0.529375,-0.546138,-0.531631,-0.547911,-0.503102,-0.499878,-0.49472,-0.499395,-0.56145,-0.498105,-0.523895,-0.511806,-0.525829,-0.526635,-0.50552,-0.536145,-0.533566,-0.520349,-0.547427,-0.547911,-0.509388,-0.543559,-0.480859,-0.510355,-0.504875,-0.500362,-0.506648,-0.506648,-0.507615,-0.505359,-0.550006,-0.490691,-0.515674,-0.508582,-0.547589,-0.523089,-0.550168,-0.534372,-0.550329,-0.498105,-0.544848,-0.540819,-0.50423,-0.541141,-0.535822,-0.519059,-0.537434,-0.504714,-0.548717,-0.491819,-0.514546,-0.560967,-0.50149,-0.489401,-0.501329,-0.538401,-0.501329,-0.50552,-0.529858,-0.507454,-0.506809,-0.533082,-0.545977,-0.550651,-0.524056,-0.531954,-0.542914,-0.515674,-0.51777,-0.536145,-0.491174,-0.47554,-0.501812,-0.503102,-0.482148,-0.491174,-0.543881,-0.538079,-0.500523,-0.54501,-0.497299,-0.540497,-0.550168,-0.497622,-0.519381,-0.515674,-0.541464,-0.527441,-0.501168,-0.533888,-0.48779,-0.495204,-0.513257,-0.484082,-0.51503,-0.50697,-0.498428,-0.540819,-0.514868,-0.50423,-0.509066,-0.516964,-0.549845,-0.540335,-0.555164,-0.543398,-0.497461,-0.500684,-0.496977,-0.501329,-0.545493,-0.55726,-0.498266,-0.509227,-0.541786,-0.480536,-0.494398,-0.515352,-0.506326,-0.539046,-0.511967,-0.493431,-0.488273,-0.549362,-0.505359,-0.497783,-0.559839,-0.508099,-0.499395,-0.543398,-0.511806,-0.500523,-0.504391,-0.545493,-0.547589,-0.498589,-0.540013,-0.508582,-0.517447,-0.550973,-0.504714,-0.49053,-0.521799,-0.499556,-0.507937,-0.519543,-0.540335,-0.495204,-0.530503,-0.551296,-0.502135,-0.560161,-0.501974,-0.523089,-0.529214,-0.525023,-0.501168,-0.489079,-0.534372,-0.495688,-0.505197,-0.499878,-0.495526,-0.494076,-0.499395,-0.491497,-0.501007,-0.537595,-0.532437,-0.493431,-0.505197,-0.490046,-0.51503,-0.548233,-0.483115,-0.489401,-0.548395,-0.494398,-0.504875,-0.497783,-0.54372,-0.49875,-0.520671,-0.54775,-0.545493,-0.505197,-0.503424,-0.49198,-0.50971,-0.531793,-0.527279,-0.541141,-0.526635,-0.49327,-0.540335,-0.503585,-0.503908,-0.495204,-0.533082,-0.506809,-0.506648,-0.512612,-0.480859,-0.512934,-0.547911,-0.534049,-0.55049,-0.495365,-0.486016,-0.499878,-0.550006,-0.530181,-0.52051,-0.518576,-0.516158,-0.534855,-0.538079,-0.532437,-0.49327,-0.530826,-0.54227,-0.496332,-0.544204,-0.490207,-0.477313,-0.509388,-0.522928,-0.495688,-0.546783,-0.535822,-0.493592,-0.491819,-0.503102,-0.54372,-0.509388,-0.496977,-0.517931,-0.49327,-0.541302,-0.473283,-0.495365,-0.492303,-0.50278,-0.537112,-0.55452,-0.509227,-0.532276,-0.490207,-0.513095,-0.489885,-0.533404,-0.495688,-0.493431,-0.527924,-0.484405,-0.522605,-0.490852,-0.519543,-0.478763,-0.487628,-0.510839,-0.500523,-0.504875,-0.510678,-0.521638,-0.502941,-0.542914,-0.500362,-0.510033,-0.473605,-0.482148,-0.511806,-0.524862,-0.535983,-0.46877,-0.480375,-0.49198,-0.48779,-0.518253,-0.533727,-0.519381,-0.477796,-0.487628,-0.482793,-0.519543,-0.48247,-0.455714,-0.470704,-0.520671,-0.511967,-0.504875,-0.473767,-0.49053,-0.468125,-0.528891,-0.496332,-0.477635,-0.487628,-0.499717,-0.481665,-0.475378,-0.466997,-0.462323,-0.496493,-0.469092,-0.502296,-0.460066,-0.48924,-0.462323,-0.474089,-0.511645,-0.513257,-0.479569,-0.479569,-0.511806,-0.506809,-0.484727,-0.486661,-0.495043,-0.480536,-0.50552,-0.489401,-0.493753,-0.471026,-0.516641,-0.495688,-0.528891,-0.542108,-0.541141,-0.532115,-0.501329,-0.513095,-0.496816,-0.500362,-0.511806,-0.533243,-0.551457,-0.534372,-0.513418,-0.503908,-0.503908,-0.551779,-0.507293,-0.537756,-0.549362,-0.499234,-0.518253,-0.507615,-0.524378,-0.549845,-0.501168,-0.525668,-0.543075,-0.555487,-0.487145,-0.538562,-0.566769,-0.488918,-0.494398,-0.559033,-0.54372,-0.515997,-0.547105,-0.503585,-0.505359,-0.510355,-0.512128,-0.539529,-0.549362,-0.539691,-0.489885,-0.497944,-0.472155,-0.49327,-0.515191,-0.503102,-0.546138,-0.50423,-0.544365,-0.503102,-0.541302,-0.498911,-0.540174,-0.556454,-0.498589,-0.488434,-0.496171,-0.500684,-0.51374,-0.48376,-0.490046,-0.494398,-0.510678,-0.494398,-0.518737,-0.516158,-0.495849,-0.473283,-0.51922,-0.508743,-0.474572,-0.488595,-0.457326,-0.461678,-0.433309,-0.482793,-0.485694,-0.411066,-0.430731,-0.427829,-0.466674,-0.445237,-0.419931,-0.447816,-0.394303,-0.429441,-0.419125,-0.406875,-0.422671,-0.405102,-0.413162,-0.390273,-0.428474,-0.450395,-0.447655,-0.518576,-0.503263,-0.576763,-0.578536,-0.614319,-0.653486,-0.648167,-0.691203,-0.677503,-0.722634,-0.68943,-0.74391,-0.690075,-0.676213,-0.689108,-0.745522,-0.726019,-0.703776,-0.703131,-0.732627,-0.684111,-0.681855,-0.67444,-0.655098,-0.628986,-0.632049,-0.630759,-0.563062,-0.571927,-0.536467,-0.500845,-0.490046,-0.541464,-0.494076,-0.50278,-0.476184,-0.541947,-0.539691,-0.489401,-0.499556,-0.522122,-0.472638,-0.481826,-0.465063,-0.512934,-0.46329,-0.473122,-0.457003,-0.467642,-0.482632,-0.461839,-0.510839,-0.519381,-0.462484,-0.47973,-0.472638,-0.497461,-0.522283,-0.515674,-0.46603,-0.456036,-0.509227,-0.446204,-0.456359,-0.503424,-0.441046,-0.503908,-0.465546,-0.467964,-0.461355,-0.467319,-0.459421,-0.477635,-0.498428
 10:46:35.,-0.494076,-0.470865,-0.46603,-0.459582,-0.49327,-0.481665,-0.493431,-0.486984,-0.447977,-0.459744,-0.48376,-0.45249,-0.458293,-0.456198,-0.462484,-0.465063,-0.448461,-0.447494,-0.504069,-0.490691,-0.444592,-0.486822,-0.476829,-0.475217,-0.496977,-0.485372,-0.47828,-0.479247,-0.449105,-0.452652,-0.502296,-0.458938,-0.461839,-0.446365,-0.457648,-0.45249,-0.445398,-0.491819,-0.434277,-0.439757,-0.436211,-0.432504,-0.488595,-0.441207,-0.454425,-0.442497,-0.456198,-0.454908,-0.462806,-0.464096,-0.443464,-0.449911,-0.491013,-0.437823,-0.476345,-0.481342,-0.445882,-0.476829,-0.443948,-0.444754,-0.478763,-0.432665,-0.442819,-0.45523,-0.460549,-0.467642,-0.449428,-0.484566,-0.487145,-0.477474,-0.428474,-0.477635,-0.468286,-0.442175,-0.422994,-0.430086,-0.480053,-0.4865,-0.47425,-0.436372,-0.481181,-0.428474,-0.475701,-0.495043,-0.431214,-0.442658,-0.481826,-0.416869,-0.423477,-0.43202,-0.451684,-0.452652,-0.459099,-0.429119,-0.439596,-0.429763,-0.425734,-0.415902,-0.477796,-0.419287,-0.421221,-0.479892,-0.447171,-0.417997,-0.45378,-0.421543,-0.450234,-0.414773,-0.418964,-0.442336,-0.468125,-0.413484,-0.413162,-0.402523,-0.412839,-0.455875,-0.458454,-0.431053,-0.442013,-0.405747,-0.413,-0.414451,-0.394464,-0.449428,-0.38431,-0.440079,-0.398655,-0.419931,-0.410421,-0.457648,-0.411066,-0.409293,-0.398171,-0.44427,-0.402523,-0.442336,-0.442497,-0.390757,-0.441369,-0.392208,-0.382375,-0.394787,-0.445076,-0.408004,-0.408648,-0.428796,-0.441852,-0.396237,-0.410744,-0.410099,-0.45523,-0.442175,-0.40752,-0.387856,-0.401073,-0.410421,-0.420737,-0.397204,-0.398655,-0.405586,-0.412356,-0.408326,-0.434438,-0.417513,-0.414451,-0.460227,-0.426862,-0.420415,-0.409132,-0.4238,-0.43476,-0.415418,-0.42799,-0.438145,-0.46474,-0.455714,-0.44975,-0.439757,-0.429602,-0.470543,-0.480053,-0.493431,-0.458293,-0.489885,-0.490368,-0.501007,-0.518576,-0.491013,-0.461033,-0.467158,-0.462,-0.461194,-0.518576,-0.479086,-0.485372,-0.48779,-0.542753,-0.491336,-0.521799,-0.529697,-0.49601,-0.501812,-0.508905,-0.535822,-0.496816,-0.528247,-0.495043,-0.549684,-0.551135,-0.533082,-0.544687,-0.513418,-0.541947,-0.551941,-0.566125,-0.558066,-0.519381,-0.54646,-0.558388,-0.521477,-0.570477,-0.563707,-0.511967,-0.517125,-0.559516,-0.557421,-0.558549,-0.555325,-0.566447,-0.536467,-0.53276,-0.572572,-0.571605,-0.52873,-0.519865,-0.526151,-0.533404,-0.503908,-0.519865,-0.522928,-0.550973,-0.573217,-0.549362,-0.532276,-0.53421,-0.573378,-0.528569,-0.536789,-0.530826,-0.566286,-0.575473,-0.574667,-0.527441,-0.560322,-0.567898,-0.560967,-0.558066,-0.529375,-0.521799,-0.549845,-0.53276,-0.525829,-0.52599,-0.519865,-0.52873,-0.541464,-0.553714,-0.53421,-0.566931,-0.557743,-0.521638,-0.503747,-0.528408,-0.522122,-0.491819,-0.56822,-0.560322,-0.522605,-0.516641,-0.514546,-0.553552,-0.561612,-0.587885,-0.516641,-0.518092,-0.528247,-0.50971,-0.512451,-0.543398,-0.51922,-0.507132,-0.543398,-0.510678,-0.535822,-0.519865,-0.507937,-0.549845,-0.522766,-0.537434,-0.508743,-0.520832,-0.56,-0.5492,-0.52325,-0.523733,-0.501974,-0.536628,-0.510033,-0.52599,-0.505036,-0.507132,-0.516319,-0.506648,-0.506809,-0.554681,-0.506809,-0.551779,-0.51777,-0.516158,-0.509388,-0.503747,-0.538401,-0.498589,-0.501974,-0.534533,-0.533727,-0.518737,-0.500201,-0.499556,-0.550329,-0.50697,-0.509388,-0.509549,-0.557421,-0.511645,-0.506003,-0.521155,-0.546944,-0.557904,-0.549523,-0.476345,-0.543881,-0.517447,-0.512128,-0.531148,-0.557743,-0.543398,-0.55323,-0.512289,-0.506326,-0.517125,-0.526796,-0.500362,-0.501168,-0.553069,-0.498589,-0.544204,-0.487145,-0.498911,-0.544365,-0.511967,-0.543237,-0.492786,-0.545332,-0.523733,-0.539046,-0.551618,-0.501651,-0.545171,-0.54098,-0.491819,-0.496332,-0.542108,-0.542431,-0.50552,-0.500845,-0.542753,-0.494559,-0.505681,-0.494398,-0.521799,-0.529052,-0.510516,-0.536628,-0.513095,-0.518092,-0.499878,-0.498911,-0.545816,-0.492625,-0.548556,-0.515997,-0.525023,-0.511483,-0.506809,-0.550812,-0.51777,-0.562579,-0.54227,-0.543237,-0.517931,-0.518737,-0.497138,-0.510678,-0.526635,-0.533243,-0.501007,-0.493431,-0.535983,-0.558066,-0.492947,-0.506003,-0.514385,-0.53421,-0.515513,-0.567898,-0.533727,-0.514707,-0.503263,-0.551941,-0.535339,-0.512451,-0.520671,-0.514224,-0.551779,-0.507132,-0.510194,-0.511645,-0.495204,-0.534049,-0.549362,-0.519704,-0.538079,-0.512612,-0.502941,-0.495204,-0.535822,-0.505197,-0.493914,-0.533243,-0.488273,-0.496655,-0.542914,-0.549039,-0.509549,-0.497944,-0.550973,-0.499717,-0.498266,-0.548717,-0.50971,-0.496816,-0.526957,-0.494398,-0.51374,-0.497138,-0.499556,-0.485855,-0.545171,-0.502135,-0.492947,-0.504391,-0.540658,-0.535177,-0.526957,-0.546138,-0.512451,-0.500523,-0.509227,-0.528891,-0.489401,-0.514385,-0.486822,-0.500684,-0.516803,-0.504391,-0.494398,-0.549362,-0.504875,-0.497944,-0.512451,-0.50697,-0.538401,-0.547911,-0.509388,-0.501651,-0.534694,-0.525345,-0.482793,-0.527118,-0.511483,-0.499234,-0.530664,-0.554197,-0.540497,-0.554358,-0.50552,-0.497461,-0.54098,-0.515997,-0.500201,-0.498911,-0.50971,-0.487951,-0.482793,-0.54501,-0.473605,-0.51503,-0.498428,-0.494559,-0.485049,-0.500523,-0.496977,-0.524056,-0.47973,-0.500039,-0.526796,-0.502618,-0.518092,-0.48102,-0.481665,-0.507454,-0.513901,-0.522605,-0.505036,-0.484566,-0.542592,-0.54098,-0.478441,-0.533566,-0.50278,-0.476023,-0.537112,-0.492464,-0.517447,-0.522122,-0.477313,-0.463773,-0.484405,-0.477313,-0.470865,-0.510678,-0.530342,-0.488918,-0.479247,-0.502618,-0.471832,-0.515513,-0.521155,-0.540335,-0.470059,-0.481342,-0.475862,-0.466836,-0.477474,-0.514062,-0.461033,-0.521155,-0.496493,-0.510516,-0.524056,-0.477313,-0.516319,-0.474089,-0.496171,-0.479892,-0.533082,-0.49053,-0.481826,-0.515513,-0.493431,-0.527441,-0.482954,-0.494398,-0.501168,-0.536628,-0.554681,-0.545171,-0.552102,-0.519543,-0.528569,-0.501329,-0.506809,-0.521477,-0.507132,-0.515674,-0.504391,-0.535661,-0.498105,-0.532599,-0.483599,-0.550006,-0.488112,-0.498589,-0.549039,-0.507776,-0.500845,-0.540497,-0.535177,-0.545654,-0.503424,-0.538079,-0.488918,-0.550006,-0.49472,-0.487145,-0.533566,-0.479247,-0.53421,-0.499072,-0.53824,-0.540497,-0.538562,-0.513579,-0.542431,-0.546622,-0.498911,-0.504553,-0.512773,-0.499072,-0.505359,-0.513901,-0.506326,-0.528891,-0.523411,-0.538562,-0.50423,-0.549362,-0.499717,-0.502618,-0.502296,-0.543559,-0.547427,-0.543881,-0.5355,-0.534533,-0.499717,-0.542753,-0.516803,-0.474895,-0.480859,-0.492786,-0.514546,-0.470382,-0.459744,-0.502941,-0.479569,-0.510516,-0.474572,-0.462967,-0.447816,-0.47828,-0.446527,-0.466836,-0.424606,-0.423477,-0.398816,-0.409132,-0.414612,-0.442013,-0.402523,-0.386083,-0.434921,-0.432342,-0.387695,-0.379313,-0.401395,-0.437339,-0.401879,-0.412517,-0.482632,-0.453135,-0.493914,-0.506487,-0.549523,-0.563062,-0.578536,-0.658322,-0.62544,-0.676697,-0.684756,-0.684917,-0.697973,-0.666703,-0.665575,-0.658644,-0.695555,-0.685401,-0.687657,-0.703937,-0.660739,-0.641236,-0.653486,-0.615608,-0.616092,-0.610128,-0.595299,-0.601746,-0.596911,-0.563062,-0.538724,-0.537434,-0.545332,-0.491336,-0.506809,-0.476184,-0.489079,-0.482632,-0.48102,-0.480214,-0.493431,-0.494237,-0.514868,-0.482632,-0.470059,-0.500039,-0.528891,-0.47425,-0.463773,-0.459905,-0.456198,-0.490207,-0.507454,-0.466191,-0.442336,-0.454425,-0.469253,-0.460549,-0.520187,-0.473767,-0.468286,-0.503263,-0.502941,-0.467642,-0.500039,-0.516158,-0.471349,-0.45652,-0.514546,-0.450073,-0.493431,-0.468125,-0.490691,-0.484888,-0.517931,-0.461678,-0.46329,-0.501974,-0.492464,-0.48924,-0.459744,-0.456036,-0.484727,-0.510678,-0.443625,-0.467158,-0.504714,-0.457971,-0.491819,-0.498911,-0.48247,-0.449428,-0.476345,-0.502457,-0.451362,-0.453941,-0.458293,-0.50423,-0.448622,-0.497138,-0.456842,-0.447494,-0.449911,-0.475378,-0.458776,-0.501651,-0.442658,-0.496655,-0.45378,-0.494237,-0.488273,-0.467803,-0.469898,-0.447171,-0.495365,-0.455069,-0.464096,-0.502457,-0.453135,-0.471832,-0.457971,-0.433148,-0.447171,-0.49053,-0.450073,-0.460066,-0.444915,-0.493431,-0.485694,-0.448622,-0.459099,-0.487467,-0.48376,-0.474734,-0.42799,-0.443948,-0.45104,-0.443948,-0.435405,-0.452168,-0.472961,-0.453457,-0.457971,-0.4375,-0.461517,-0.494237,-0.457326,-0.487306,-0.48779,-0.483276,-0.421543,-0.47425,-0.475217,-0.421704,-0.439112,-0.425411,-0.440885,-0.442013,-0.484405,-0.454425,-0.439273,-0.43202,-0.434115,-0.457971,-0.436533,-0.45652,-0.478441,-0.417513,-0.453457,-0.429441,-0.413162,-0.432504,-0.428152,-0.432342,-0.469415,-0.432181,-0.472316,-0.426379,-0.437017,-0.466836,-0.462967,-0.416224,-0.458132,-0.412678,-0.460711,-0.415579,-0.398655,-0.385599,-0.427023,-0.420092,-0.457648,-0.405908,-0.407681,-0.411872,-0.411389,-0.421221,-0.461839,-0.454747,-0.445398,-0.408004,-0.457487,-0.4375,-0.394303,-0.403007,-0.393658,-0.439434,-0.453296,-0.393981,-0.418964,-0.405425,-0.393014,-0.429602,-0.441046,-0.405747,-0.38979,-0.428635,-0.429119,-0.394625,-0.413484,-0.394303,-0.421382,-0.3885,-0.447816,-0.41703,-0.425573,-0.428474,-0.408326,-0.398816,-0.448138,-0.43605,-0.407359,-0.436372,-0.44975,-0.438306,-0.399622,-0.405425,-0.399139,-0.454102,-0.423155,-0.445559,-0.473122,-0.409616,-0.462323,-0.475056,-0.443948,-0.426862,-0.471994,-0.421704,-0.48247,-0.433471,-0.43202,-0.454908,-0.439918,-0.469898,-0.470865,-0.501007,-0.455069,-0.45523,-0.484082,-0.496655,-0.504875,-0.510033,-0.480536,-0.503585,-0.469737,-0.480214,-0.502135,-0.514062,-0.47554,-0.484566,-0.51374,-0.518253,-0.485049,-0.497299,-0.497944,-0.541786,-0.500039,-0.539207,-0.505681,-0.519865,-0.51503,-0.509549,-0.509549,-0.544365,-0.516803,-0.50149,-0.507293,-0.511806,-0.506326,-0.517608,-0.510355,-0.557904,-0.565319,-0.527924,-0.523895,-0.518737,-0.568542,-0.527763,-0.521799,-0.52599,-0.536306,-0.55049,-0.569026,-0.540819,-0.524539,-0.561289,-0.518737,-0.561934,-0.518737,-0.519865,-0.524701,-0.543237,-0.52599,-0.533727,-0.542914,-0.542753,-0.559516,-0.517608,-0.511,-0.527763,-0.529697,-0.525506,-0.518253,-0.543881,-0.566286,-0.565802,-0.550651,-0.563385,-0.56548,-0.573056
 10:46:36.,-0.529214,-0.560644,-0.520993,-0.514868,-0.50971,-0.511322,-0.563707,-0.50278,-0.537756,-0.546299,-0.547266,-0.527279,-0.571927,-0.516641,-0.51777,-0.541947,-0.52873,-0.558871,-0.523089,-0.521155,-0.546138,-0.526796,-0.503102,-0.553875,-0.529052,-0.514707,-0.506326,-0.507293,-0.555648,-0.516158,-0.510678,-0.564513,-0.556293,-0.561773,-0.566286,-0.55323,-0.527118,-0.521316,-0.513901,-0.521638,-0.541786,-0.505359,-0.524539,-0.550168,-0.53421,-0.530342,-0.56822,-0.523733,-0.56,-0.562417,-0.510678,-0.50971,-0.525668,-0.515513,-0.493109,-0.511967,-0.505681,-0.532437,-0.531793,-0.522605,-0.507132,-0.539691,-0.549845,-0.533082,-0.571121,-0.562095,-0.520832,-0.506487,-0.552746,-0.51374,-0.509066,-0.500201,-0.512289,-0.513579,-0.515835,-0.502941,-0.500039,-0.508905,-0.544043,-0.54646,-0.505681,-0.520349,-0.504391,-0.517286,-0.549362,-0.501974,-0.537273,-0.55871,-0.479892,-0.493914,-0.497622,-0.490691,-0.544526,-0.499395,-0.540013,-0.508905,-0.543881,-0.517608,-0.542753,-0.551135,-0.502296,-0.50552,-0.513579,-0.497299,-0.496816,-0.535822,-0.483921,-0.49053,-0.525023,-0.552263,-0.515352,-0.511322,-0.508743,-0.50423,-0.546944,-0.501651,-0.498589,-0.501651,-0.543398,-0.535177,-0.525506,-0.538401,-0.48247,-0.52873,-0.548072,-0.527441,-0.498105,-0.552746,-0.547266,-0.51648,-0.539691,-0.548556,-0.500845,-0.550006,-0.543881,-0.537112,-0.549362,-0.496816,-0.491497,-0.552585,-0.514546,-0.524378,-0.49327,-0.498428,-0.528891,-0.548072,-0.549845,-0.539852,-0.534694,-0.513095,-0.526474,-0.540658,-0.509388,-0.536145,-0.491819,-0.540819,-0.492947,-0.491497,-0.543881,-0.498105,-0.525668,-0.560967,-0.511806,-0.53147,-0.499556,-0.504391,-0.535661,-0.503263,-0.51503,-0.498428,-0.506809,-0.515674,-0.484082,-0.52599,-0.544848,-0.495365,-0.532599,-0.510033,-0.53695,-0.539852,-0.502296,-0.517125,-0.552424,-0.560161,-0.56145,-0.495043,-0.543398,-0.488112,-0.528247,-0.491658,-0.545493,-0.513095,-0.523089,-0.499717,-0.491013,-0.485533,-0.495526,-0.489724,-0.491497,-0.535177,-0.539046,-0.49472,-0.484405,-0.519704,-0.468609,-0.488112,-0.518414,-0.48779,-0.487628,-0.480053,-0.511483,-0.514385,-0.472638,-0.478763,-0.493914,-0.498911,-0.520026,-0.52873,-0.485049,-0.498105,-0.519381,-0.516158,-0.480375,-0.476184,-0.486339,-0.474572,-0.514062,-0.496332,-0.489079,-0.484082,-0.483921,-0.518737,-0.483921,-0.491658,-0.524378,-0.524378,-0.48102,-0.473767,-0.467642,-0.510516,-0.514707,-0.465869,-0.514224,-0.504553,-0.499878,-0.474572,-0.469737,-0.477796,-0.494076,-0.540013,-0.500684,-0.482632,-0.495849,-0.484243,-0.480697,-0.489724,-0.485855,-0.495526,-0.518898,-0.499395,-0.492786,-0.50552,-0.508421,-0.498589,-0.539529,-0.494398,-0.508421,-0.497138,-0.525829,-0.53002,-0.50423,-0.528408,-0.519704,-0.503102,-0.514868,-0.497299,-0.497944,-0.506809,-0.516964,-0.498911,-0.508099,-0.506487,-0.506164,-0.516641,-0.511806,-0.497783,-0.526957,-0.508099,-0.512451,-0.52051,-0.519865,-0.506326,-0.503585,-0.504553,-0.535661,-0.521316,-0.559033,-0.505036,-0.538724,-0.54372,-0.496977,-0.500039,-0.496816,-0.49472,-0.497138,-0.53695,-0.49875,-0.516964,-0.541625,-0.500523,-0.494559,-0.494559,-0.536145,-0.532115,-0.516964,-0.527763,-0.497622,-0.504875,-0.512128,-0.510194,-0.485211,-0.530342,-0.477313,-0.519543,-0.497299,-0.489885,-0.511645,-0.499556,-0.49053,-0.495043,-0.537434,-0.507615,-0.484405,-0.477151,-0.471671,-0.473767,-0.518253,-0.459582,-0.45926,-0.469415,-0.455392,-0.490207,-0.489885,-0.454102,-0.486339,-0.477635,-0.433793,-0.465063,-0.440402,-0.416708,-0.428474,-0.402685,-0.407359,-0.402201,-0.384149,-0.406714,-0.441691,-0.441046,-0.46603,-0.407681,-0.437661,-0.446688,-0.48247,-0.505842,-0.526474,-0.572089,-0.562256,-0.594332,-0.603036,-0.600457,-0.66348,-0.611578,-0.633016,-0.658322,-0.657355,-0.682499,-0.691203,-0.661062,-0.68798,-0.666542,-0.677341,-0.659772,-0.682016,-0.665736,-0.652519,-0.611417,-0.618832,-0.614319,-0.575957,-0.553552,-0.538562,-0.547266,-0.535016,-0.520993,-0.529858,-0.506326,-0.497944,-0.51648,-0.520671,-0.480859,-0.516158,-0.52599,-0.484888,-0.472155,-0.471832,-0.463773,-0.519059,-0.478118,-0.45104,-0.470382,-0.486822,-0.465385,-0.460711,-0.471994,-0.475701,-0.460388,-0.518576,-0.489079,-0.469415,-0.520349,-0.4865,-0.506164,-0.469092,-0.488918,-0.459744,-0.505681,-0.462161,-0.485049,-0.521155,-0.46329,-0.45378,-0.478118,-0.466997,-0.471671,-0.465869,-0.488434,-0.476507,-0.46474,-0.450878,-0.506487,-0.483599,-0.471832,-0.498105,-0.501651,-0.512128,-0.457487,-0.45652,-0.465869,-0.466352,-0.460227,-0.462484,-0.50149,-0.494882,-0.512451,-0.477957,-0.496493,-0.459099,-0.49198,-0.455875,-0.486339,-0.485211,-0.45249,-0.491336,-0.500201,-0.508421,-0.481987,-0.501329,-0.458615,-0.472477,-0.458293,-0.454263,-0.50971,-0.459099,-0.445398,-0.471671,-0.454425,-0.45378,-0.457809,-0.462806,-0.457003,-0.45523,-0.460388,-0.458132,-0.478441,-0.481987,-0.44701,-0.50552,-0.444592,-0.46329,-0.498428,-0.440079,-0.453135,-0.469092,-0.498589,-0.472799,-0.497783,-0.442013,-0.45378,-0.478441,-0.451846,-0.472961,-0.495043,-0.449105,-0.456359,-0.486178,-0.478602,-0.448944,-0.492786,-0.484566,-0.44701,-0.449589,-0.483438,-0.447171,-0.49875,-0.470059,-0.440563,-0.45523,-0.444915,-0.457809,-0.446043,-0.453296,-0.459582,-0.444915,-0.439273,-0.473122,-0.481342,-0.467319,-0.439596,-0.450878,-0.469092,-0.443464,-0.446365,-0.431375,-0.43476,-0.474572,-0.431536,-0.437017,-0.497299,-0.436856,-0.460227,-0.448944,-0.47554,-0.434438,-0.439434,-0.419287,-0.449589,-0.434277,-0.478602,-0.423961,-0.43202,-0.440724,-0.424122,-0.466997,-0.414451,-0.450717,-0.414612,-0.418481,-0.4238,-0.463451,-0.467642,-0.413484,-0.458132,-0.428635,-0.415257,-0.42799,-0.431053,-0.457003,-0.426056,-0.425895,-0.44427,-0.41155,-0.422994,-0.438306,-0.468125,-0.464901,-0.442497,-0.432181,-0.459582,-0.413,-0.462161,-0.420898,-0.402201,-0.444109,-0.42525,-0.426056,-0.458776,-0.447816,-0.443948,-0.437984,-0.413484,-0.413967,-0.420254,-0.432987,-0.419287,-0.421221,-0.476345,-0.422188,-0.426862,-0.433954,-0.43202,-0.450395,-0.429763,-0.461839,-0.432665,-0.469576,-0.429925,-0.443625,-0.44975,-0.437339,-0.446043,-0.495365,-0.450395,-0.457003,-0.455553,-0.498589,-0.486178,-0.467642,-0.465385,-0.472799,-0.459582,-0.460549,-0.479086,-0.501329,-0.477796,-0.520187,-0.529214,-0.47973,-0.560644,-0.49327,-0.49053,-0.501812,-0.50423,-0.512128,-0.526474,-0.531793,-0.498428,-0.562256,-0.536628,-0.506003,-0.517931,-0.511967,-0.547266,-0.521638,-0.520832,-0.525829,-0.513901,-0.554197,-0.550168,-0.56274,-0.522283,-0.525506,-0.534694,-0.519865,-0.51777,-0.568059,-0.518576,-0.56145,-0.536628,-0.520993,-0.553714,-0.535822,-0.527763,-0.532437,-0.571927,-0.526312,-0.569348,-0.569026,-0.562417,-0.555648,-0.525184,-0.560322,-0.524056,-0.563223,-0.527763,-0.524862,-0.533727,-0.528569,-0.561773,-0.537273,-0.564029,-0.522122,-0.521155,-0.514224,-0.527924,-0.529052,-0.521316,-0.514707,-0.519059,-0.526957,-0.554842,-0.534855,-0.562901,-0.548878,-0.518898,-0.514062,-0.550006,-0.530987,-0.563868,-0.527279,-0.568865,-0.564996,-0.563062,-0.525345,-0.522283,-0.498105,-0.514546,-0.525829,-0.528085,-0.529858,-0.512289,-0.508743,-0.556293,-0.513257,-0.524217,-0.508421,-0.568865,-0.512773,-0.518898,-0.527763,-0.510516,-0.526635,-0.522928,-0.498105,-0.544687,-0.549362,-0.507615,-0.515997,-0.51503,-0.551296,-0.561289,-0.564996,-0.508743,-0.564513,-0.524217,-0.539852,-0.52599,-0.553069,-0.494076,-0.508743,-0.501974,-0.50149,-0.509872,-0.512773,-0.540819,-0.49601,-0.561612,-0.516803,-0.495849,-0.510516,-0.503585,-0.500362,-0.532599,-0.501329,-0.509066,-0.504714,-0.522605,-0.515674,-0.514546,-0.494882,-0.497783,-0.547105,-0.499878,-0.504553,-0.558066,-0.532276,-0.536467,-0.546299,-0.513257,-0.546299,-0.543881,-0.51777,-0.496977,-0.506809,-0.474895,-0.496332,-0.508421,-0.530503,-0.55452,-0.511,-0.517931,-0.495204,-0.544204,-0.518576,-0.53002,-0.506809,-0.492141,-0.493753,-0.537112,-0.496655,-0.505197,-0.485211,-0.519381,-0.543237,-0.547589,-0.54646,-0.494882,-0.50697,-0.488273,-0.503102,-0.535177,-0.520349,-0.538562,-0.496493,-0.528085,-0.53147,-0.502296,-0.539529,-0.485694,-0.500684,-0.487628,-0.499072,-0.509066,-0.491336,-0.535016,-0.528408,-0.500362,-0.544365,-0.499878,-0.503424,-0.486984,-0.5355,-0.491174,-0.528569,-0.532437,-0.48924,-0.496493,-0.490691,-0.527118,-0.561128,-0.552263,-0.488112,-0.482309,-0.488757,-0.490691,-0.500684,-0.543237,-0.482632,-0.509066,-0.542431,-0.481503,-0.48924,-0.538724,-0.508421,-0.524217,-0.491174,-0.492464,-0.492303,-0.526474,-0.520349,-0.495849,-0.502941,-0.502135,-0.498428,-0.48247,-0.489724,-0.507454,-0.517447,-0.483115,-0.512451,-0.530181,-0.531793,-0.547911,-0.487145,-0.478118,-0.534855,-0.509872,-0.484888,-0.481503,-0.489885,-0.501168,-0.472638,-0.48376,-0.482309,-0.492786,-0.503585,-0.485855,-0.491013,-0.517608,-0.491336,-0.481987,-0.492303,-0.486178,-0.491336,-0.488918,-0.49472,-0.510516,-0.511,-0.479408,-0.480859,-0.475217,-0.477957,-0.473928,-0.472155,-0.484566,-0.501007,-0.522605,-0.49198,-0.48924,-0.489079,-0.504391,-0.485694,-0.514224,-0.497622,-0.476668,-0.475056,-0.516319,-0.511967,-0.46877,-0.469737,-0.4865,-0.486822,-0.491013,-0.481665,-0.481987,-0.501007,-0.483115,-0.488918,-0.533888,-0.481987,-0.481826,-0.480375,-0.48102,-0.504553,-0.524056,-0.490368,-0.488918,-0.550812,-0.493592,-0.515835,-0.55726,-0.500684,-0.550651,-0.518253,-0.508099,-0.543881,-0.498105,-0.496332,-0.502457,-0.558871,-0.485372,-0.522928,-0.506164,-0.498105,-0.511645,-0.548395,-0.53421,-0.558388,-0.515513,-0.540497,-0.543237,-0.510839,-0.507454,-0.496493,-0.506003,-0.54501,-0.552102,-0.508421,-0.480053,-0.506487,-0.495365,-0.505036,-0.550006,-0.498266,-0.513901,-0.515513,-0.512289,-0.534855,-0.502135,-0.54098,-0.511322,-0.507937,-0.496171,-0.480536,-0.537595,-0.490852,-0.498428,-0.548556,-0.517608,-0.512612,-0.514062,-0.512612,-0.514546,-0.503424,-0.539046,-0.492303,-0.518253,-0.491658,-0.495204,-0.492141,-0.494559,-0.502618,-0.498589,-0.512612,-0.520993,-0.514224,-0.502618,-0.536628,-0.548878,-0.537756,-0.502941
 10:46:37.,-0.49601,-0.508743,-0.470382,-0.506487,-0.497944,-0.454425,-0.463451,-0.462,-0.449428,-0.452813,-0.450234,-0.455875,-0.463934,-0.436856,-0.425895,-0.426056,-0.463128,-0.458776,-0.462806,-0.41155,-0.407198,-0.443142,-0.398333,-0.440079,-0.422671,-0.417836,-0.457971,-0.460066,-0.520187,-0.50697,-0.568865,-0.601424,-0.605292,-0.58047,-0.648167,-0.603036,-0.661707,-0.649618,-0.612223,-0.632532,-0.672184,-0.648812,-0.642042,-0.653003,-0.656871,-0.684917,-0.708933,-0.654776,-0.637207,-0.651874,-0.648812,-0.623345,-0.623184,-0.573862,-0.608194,-0.596105,-0.556776,-0.557098,-0.518898,-0.502941,-0.505681,-0.487467,-0.496493,-0.522283,-0.487467,-0.512612,-0.471349,-0.478441,-0.518737,-0.522283,-0.509066,-0.507776,-0.468125,-0.476345,-0.459905,-0.524539,-0.490207,-0.472477,-0.531148,-0.501168,-0.470382,-0.475701,-0.469576,-0.509066,-0.467158,-0.47973,-0.461033,-0.515674,-0.496977,-0.458132,-0.501168,-0.466997,-0.498428,-0.482309,-0.476023,-0.510516,-0.500039,-0.51648,-0.511645,-0.508421,-0.485694,-0.47425,-0.505359,-0.512773,-0.46329,-0.478763,-0.498266,-0.466513,-0.469253,-0.500845,-0.481665,-0.472638,-0.494559,-0.499234,-0.464257,-0.497783,-0.461678,-0.462323,-0.458615,-0.511806,-0.466191,-0.485211,-0.468447,-0.466191,-0.504391,-0.497622,-0.473444,-0.508905,-0.473928,-0.460227,-0.477635,-0.504069,-0.472799,-0.496493,-0.471832,-0.506326,-0.484082,-0.475862,-0.497461,-0.461839,-0.471026,-0.470865,-0.454908,-0.511322,-0.471832,-0.469576,-0.470865,-0.470543,-0.460227,-0.515352,-0.462161,-0.492625,-0.493431,-0.481987,-0.460227,-0.451684,-0.512128,-0.44701,-0.454747,-0.502457,-0.452007,-0.510033,-0.452652,-0.472316,-0.450878,-0.476023,-0.501007,-0.45652,-0.503424,-0.480697,-0.454908,-0.451846,-0.478118,-0.50278,-0.436694,-0.439918,-0.458615,-0.440563,-0.486984,-0.461033,-0.459099,-0.454263,-0.451846,-0.4483,-0.488112,-0.499234,-0.445721,-0.43879,-0.460711,-0.481987,-0.435566,-0.438306,-0.448944,-0.455069,-0.461517,-0.47973,-0.469576,-0.447171,-0.435405,-0.436211,-0.503102,-0.436694,-0.439434,-0.479569,-0.465546,-0.460711,-0.4375,-0.478602,-0.442658,-0.429925,-0.482309,-0.430892,-0.427023,-0.453941,-0.457648,-0.432504,-0.456681,-0.430569,-0.470543,-0.449428,-0.419125,-0.42106,-0.409132,-0.412678,-0.477796,-0.465869,-0.455392,-0.433471,-0.413162,-0.415579,-0.419931,-0.413162,-0.424283,-0.461033,-0.419931,-0.447977,-0.457326,-0.420092,-0.453457,-0.429441,-0.407198,-0.422188,-0.445398,-0.461033,-0.428313,-0.450556,-0.411711,-0.432826,-0.43202,-0.451684,-0.419448,-0.420092,-0.453941,-0.414129,-0.420898,-0.401073,-0.410099,-0.416708,-0.449428,-0.47828,-0.423316,-0.460388,-0.450234,-0.465063,-0.472961,-0.460066,-0.436533,-0.44024,-0.447816,-0.445721,-0.42106,-0.497783,-0.432987,-0.440079,-0.458615,-0.448783,-0.485694,-0.497461,-0.460388,-0.475056,-0.500362,-0.486984,-0.468931,-0.477635,-0.501812,-0.470865,-0.490368,-0.465224,-0.480053,-0.476345,-0.493753,-0.517447,-0.478924,-0.525184,-0.476668,-0.500039,-0.502296,-0.535339,-0.513901,-0.493431,-0.496493,-0.494559,-0.513257,-0.555648,-0.509549,-0.500684,-0.533727,-0.518898,-0.521799,-0.54227,-0.511645,-0.501007,-0.550168,-0.512934,-0.510194,-0.564029,-0.563546,-0.553069,-0.550006,-0.517286,-0.509227,-0.549845,-0.554197,-0.552102,-0.503102,-0.572894,-0.538401,-0.552424,-0.520993,-0.527602,-0.548395,-0.528085,-0.58047,-0.525184,-0.524701,-0.5355,-0.519704,-0.525506,-0.521316,-0.54646,-0.520832,-0.55597,-0.566286,-0.512451,-0.553391,-0.556615,-0.513418,-0.540335,-0.52051,-0.537918,-0.565158,-0.554197,-0.557098,-0.555325,-0.559355,-0.560161,-0.537434,-0.502135,-0.547911,-0.514546,-0.504391,-0.514385,-0.568542,-0.563546,-0.517125,-0.53147,-0.562579,-0.549523,-0.522605,-0.566931,-0.522928,-0.501168,-0.505842,-0.532276,-0.566769,-0.504875,-0.522766,-0.55726,-0.535661,-0.523089,-0.515191,-0.516319,-0.553391,-0.554358,-0.511161,-0.518414,-0.519865,-0.499072,-0.530826,-0.533727,-0.498266,-0.532276,-0.518092,-0.518737,-0.544687,-0.552102,-0.547427,-0.530342,-0.518414,-0.506164,-0.518092,-0.501812,-0.533404,-0.55452,-0.505681,-0.490207,-0.515352,-0.487467,-0.497138,-0.559033,-0.552585,-0.50697,-0.550651,-0.521155,-0.518898,-0.511,-0.514385,-0.496977,-0.510516,-0.506326,-0.49601,-0.500039,-0.481342,-0.490368,-0.535822,-0.546622,-0.522605,-0.493914,-0.538885,-0.504391,-0.511161,-0.506648,-0.510355,-0.53421,-0.53147,-0.499878,-0.492464,-0.494076,-0.477151,-0.506164,-0.495043,-0.484566,-0.496655,-0.535177,-0.48779,-0.544365,-0.535016,-0.498911,-0.492303,-0.544204,-0.530181,-0.491336,-0.491174,-0.485694,-0.491658,-0.532599,-0.506487,-0.543237,-0.532115,-0.528085,-0.552908,-0.524539,-0.535822,-0.5492,-0.501007,-0.487628,-0.520671,-0.529858,-0.500039,-0.534533,-0.525184,-0.465385,-0.483276,-0.483921,-0.535661,-0.497783,-0.531631,-0.529536,-0.493753,-0.548233,-0.498589,-0.500523,-0.500523,-0.528408,-0.485694,-0.507937,-0.485533,-0.49875,-0.487306,-0.484243,-0.515674,-0.535177,-0.540174,-0.483438,-0.505681,-0.513095,-0.514224,-0.503908,-0.543237,-0.538885,-0.511161,-0.499878,-0.493431,-0.489563,-0.53147,-0.475056,-0.492947,-0.4865,-0.475217,-0.496977,-0.49053,-0.498105,-0.482309,-0.49053,-0.531793,-0.529697,-0.539529,-0.520349,-0.492625,-0.497299,-0.520349,-0.501007,-0.525345,-0.52051,-0.518898,-0.519865,-0.475378,-0.477313,-0.480697,-0.535661,-0.505036,-0.494559,-0.485533,-0.484888,-0.511322,-0.480536,-0.485049,-0.523733,-0.481987,-0.465707,-0.506809,-0.494237,-0.473767,-0.545816,-0.482793,-0.483115,-0.499717,-0.503747,-0.523733,-0.489401,-0.505359,-0.501974,-0.532115,-0.525829,-0.530181,-0.524217,-0.486178,-0.487467,-0.518737,-0.53276,-0.507937,-0.549523,-0.49875,-0.54372,-0.551618,-0.500523,-0.538562,-0.533082,-0.53695,-0.477474,-0.541464,-0.529375,-0.48247,-0.494882,-0.506326,-0.517608,-0.518253,-0.54501,-0.511483,-0.564674,-0.507776,-0.557421,-0.512773,-0.506003,-0.54372,-0.552424,-0.501329,-0.539046,-0.492464,-0.539368,-0.497622,-0.536145,-0.510839,-0.489885,-0.502941,-0.518092,-0.542592,-0.538724,-0.536467,-0.492303,-0.545171,-0.504875,-0.524056,-0.535983,-0.487467,-0.495204,-0.483438,-0.499878,-0.514385,-0.493753,-0.558227,-0.512289,-0.503585,-0.522283,-0.533888,-0.525668,-0.547589,-0.561773,-0.489724,-0.558388,-0.525668,-0.491497,-0.507937,-0.551457,-0.498911,-0.539691,-0.500201,-0.537273,-0.513901,-0.531631,-0.508421,-0.485049,-0.516964,-0.485855,-0.529536,-0.519543,-0.462323,-0.520349,-0.474734,-0.461355,-0.485211,-0.475378,-0.457003,-0.495365,-0.472316,-0.499072,-0.479086,-0.448461,-0.433148,-0.43476,-0.442819,-0.453135,-0.42928,-0.42928,-0.417352,-0.407681,-0.468609,-0.412517,-0.462645,-0.446527,-0.449428,-0.491013,-0.48247,-0.505842,-0.534372,-0.549684,-0.565802,-0.600296,-0.590141,-0.619799,-0.588852,-0.617059,-0.60094,-0.647522,-0.629792,-0.636078,-0.647522,-0.650101,-0.641236,-0.644943,-0.695716,-0.648006,-0.679759,-0.674924,-0.657355,-0.600779,-0.606098,-0.572572,-0.578536,-0.606421,-0.539691,-0.536145,-0.547427,-0.519059,-0.5492,-0.530342,-0.515191,-0.54372,-0.50552,-0.526796,-0.521477,-0.520349,-0.464901,-0.522766,-0.493109,-0.523089,-0.521477,-0.497461,-0.467642,-0.46329,-0.530826,-0.485694,-0.482793,-0.518414,-0.481665,-0.482954,-0.476507,-0.488112,-0.519865,-0.514062,-0.498589,-0.498266,-0.518253,-0.480214,-0.518898,-0.525184,-0.485372,-0.513418,-0.485049,-0.480375,-0.495526,-0.495043,-0.466352,-0.500523,-0.473122,-0.471188,-0.508421,-0.475056,-0.434277,-0.478602,-0.466674,-0.508421,-0.520349,-0.485049,-0.464096,-0.488918,-0.473605,-0.520993,-0.518253,-0.515674,-0.460711,-0.467642,-0.46748,-0.489401,-0.50149,-0.49601,-0.452652,-0.467158,-0.47554,-0.507454,-0.500684,-0.479408,-0.460711,-0.480375,-0.50971,-0.481665,-0.483599,-0.463934,-0.495849,-0.512289,-0.497138,-0.456681,-0.466836,-0.458454,-0.460388,-0.466513,-0.490368,-0.501651,-0.482793,-0.463773,-0.471026,-0.467158,-0.517447,-0.50423,-0.479892,-0.471188,-0.496493,-0.496655,-0.450878,-0.447494,-0.52051,-0.472477,-0.503424,-0.509388,-0.457648,-0.503747,-0.493431,-0.478441,-0.487306,-0.502457,-0.453135,-0.506809,-0.485533,-0.480375,-0.494559,-0.447332,-0.435405,-0.471832,-0.473605,-0.475056,-0.493753,-0.500039,-0.452007,-0.45523,-0.466191,-0.468125,-0.451362,-0.478602,-0.443303,-0.464096,-0.453135,-0.479569,-0.480859,-0.439112,-0.480214,-0.50423,-0.449267,-0.437984,-0.493592,-0.49198,-0.461839,-0.488595,-0.446365,-0.444431,-0.449267,-0.484727,-0.435082,-0.434921,-0.44701,-0.417352,-0.463128,-0.424444,-0.431375,-0.446204,-0.468125,-0.471026,-0.464418,-0.480375,-0.424283,-0.45926,-0.480214,-0.419287,-0.428474,-0.452329,-0.426862,-0.481181,-0.406714,-0.442175,-0.470059,-0.456681,-0.469576,-0.412194,-0.432665,-0.413967,-0.466191,-0.395915,-0.451846,-0.44701,-0.449105,-0.405425,-0.463773,-0.392047,-0.456359,-0.46748,-0.425895,-0.421865,-0.45249,-0.448944,-0.415418,-0.464418,-0.447171,-0.439918,-0.427668,-0.430569,-0.44427,-0.445076,-0.458776,-0.475378,-0.443464,-0.419287,-0.43202,-0.472155,-0.439273,-0.471994,-0.483599,-0.434921,-0.476668,-0.447494,-0.426056,-0.477957,-0.433148,-0.436533,-0.46877,-0.482148,-0.465707,-0.483599,-0.434277,-0.4865,-0.475862,-0.465063,-0.446365,-0.464257,-0.509872,-0.510194,-0.478441,-0.479247,-0.501812,-0.491497,-0.494076,-0.529697,-0.478118,-0.469253,-0.492625,-0.494882,-0.528408,-0.529052,-0.493753,-0.548233,-0.496977,-0.524701,-0.54372,-0.534372,-0.523411,-0.536467,-0.535661,-0.535822,-0.495365,-0.500362,-0.543075,-0.492625,-0.536789,-0.50149,-0.527763,-0.50971,-0.537595,-0.502457,-0.504875,-0.504391,-0.511,-0.558549,-0.515513,-0.52873,-0.50278,-0.491658,-0.49601,-0.561934,-0.55726,-0.5355,-0.523089,-0.528569,-0.52599,-0.554197,-0.553552,-0.564513,-0.552102,-0.508905,-0.525506,-0.522283,-0.510355,-0.507937,-0.516319,-0.503102,-0.508582,-0.566447,-0.50149,-0.506003,-0.521477,-0.526474,-0.519704,-0.555648,-0.544848,-0.546944,-0.52873,-0.512451,-0.506003,-0.564996,-0.4865,-0.510194,-0.563385,-0.541141,-0.514868,-0.509872,-0.506648,-0.542914,-0.517286,-0.534533,-0.508905,-0.533243,-0.497299,-0.522283
 10:46:38.,-0.502457,-0.492141,-0.502941,-0.501168,-0.477957,-0.511483,-0.492786,-0.542753,-0.501007,-0.550651,-0.548878,-0.514062,-0.508582,-0.508421,-0.507454,-0.526796,-0.557098,-0.516964,-0.501007,-0.534694,-0.52599,-0.489079,-0.540658,-0.490691,-0.502135,-0.497622,-0.526474,-0.507615,-0.546783,-0.542431,-0.502296,-0.54227,-0.560483,-0.500845,-0.497783,-0.502135,-0.493914,-0.494076,-0.529697,-0.489885,-0.487628,-0.540819,-0.500845,-0.527602,-0.516641,-0.507132,-0.530342,-0.55597,-0.540497,-0.536306,-0.498105,-0.535339,-0.548233,-0.535339,-0.529375,-0.487467,-0.499234,-0.487145,-0.499395,-0.518737,-0.499717,-0.498266,-0.514062,-0.544526,-0.550006,-0.54227,-0.495849,-0.507454,-0.514224,-0.495204,-0.53276,-0.525023,-0.473928,-0.493109,-0.54501,-0.532276,-0.554842,-0.541464,-0.544526,-0.552908,-0.542592,-0.496171,-0.493109,-0.502296,-0.50971,-0.510033,-0.526151,-0.499072,-0.488273,-0.497461,-0.490368,-0.493109,-0.486016,-0.508421,-0.52873,-0.510678,-0.543559,-0.5492,-0.502457,-0.536145,-0.551296,-0.505842,-0.538562,-0.498428,-0.481826,-0.516158,-0.458938,-0.514707,-0.546944,-0.498589,-0.497944,-0.518576,-0.493914,-0.533888,-0.532921,-0.529052,-0.538724,-0.488273,-0.543398,-0.519865,-0.485049,-0.504391,-0.468447,-0.490691,-0.529697,-0.492786,-0.54501,-0.531793,-0.529697,-0.519059,-0.500201,-0.528408,-0.48247,-0.503747,-0.510516,-0.49472,-0.483921,-0.504391,-0.476829,-0.520993,-0.477796,-0.489885,-0.490368,-0.533566,-0.498911,-0.5355,-0.485694,-0.491013,-0.517447,-0.522283,-0.491336,-0.485211,-0.470704,-0.526151,-0.46877,-0.512612,-0.475378,-0.485211,-0.471671,-0.486984,-0.511967,-0.47973,-0.479408,-0.51374,-0.508905,-0.535983,-0.483599,-0.515513,-0.476184,-0.480375,-0.488595,-0.512934,-0.476507,-0.467319,-0.492947,-0.490046,-0.481826,-0.496171,-0.505842,-0.499556,-0.496655,-0.487145,-0.490691,-0.478441,-0.525829,-0.515997,-0.518737,-0.492625,-0.479086,-0.527118,-0.51374,-0.516964,-0.545171,-0.530181,-0.48779,-0.510355,-0.496171,-0.483599,-0.532921,-0.550812,-0.490368,-0.508905,-0.498105,-0.475378,-0.533566,-0.523733,-0.50423,-0.54098,-0.487951,-0.491013,-0.496977,-0.536628,-0.529052,-0.490046,-0.503263,-0.496655,-0.492141,-0.509388,-0.492947,-0.497944,-0.525023,-0.49601,-0.520993,-0.520671,-0.492464,-0.492786,-0.490691,-0.511645,-0.515191,-0.50552,-0.49601,-0.534855,-0.501007,-0.549523,-0.49601,-0.487467,-0.510194,-0.491174,-0.484888,-0.503908,-0.498911,-0.492786,-0.539368,-0.501812,-0.533566,-0.503747,-0.54227,-0.500684,-0.505681,-0.532115,-0.521477,-0.528891,-0.522928,-0.499072,-0.483276,-0.511645,-0.484888,-0.526957,-0.490852,-0.501168,-0.494559,-0.530987,-0.536145,-0.497622,-0.494076,-0.521155,-0.507293,-0.516803,-0.497461,-0.511322,-0.470865,-0.476023,-0.472155,-0.504875,-0.474895,-0.487467,-0.468931,-0.516641,-0.518414,-0.468286,-0.468286,-0.472316,-0.506326,-0.510516,-0.47425,-0.498105,-0.47151,-0.470865,-0.459099,-0.441852,-0.423477,-0.432987,-0.438951,-0.42106,-0.447655,-0.468286,-0.417997,-0.40478,-0.430086,-0.446527,-0.445721,-0.427829,-0.473444,-0.456842,-0.476668,-0.488757,-0.560967,-0.535822,-0.563223,-0.569348,-0.581276,-0.579987,-0.594332,-0.606904,-0.60368,-0.611417,-0.667832,-0.619799,-0.678309,-0.66348,-0.620282,-0.65542,-0.659289,-0.612062,-0.608032,-0.601263,-0.62544,-0.578697,-0.620927,-0.562256,-0.542753,-0.555164,-0.525506,-0.550651,-0.505842,-0.49198,-0.516964,-0.488273,-0.491174,-0.45104,-0.514707,-0.488273,-0.516319,-0.47151,-0.481342,-0.486984,-0.513418,-0.470221,-0.474411,-0.514062,-0.513901,-0.465546,-0.526474,-0.494237,-0.460872,-0.47973,-0.447494,-0.513095,-0.467642,-0.456198,-0.464257,-0.505842,-0.514062,-0.507776,-0.462484,-0.458454,-0.461678,-0.487145,-0.468447,-0.509066,-0.509388,-0.451846,-0.457648,-0.458293,-0.510033,-0.511322,-0.466352,-0.457487,-0.501168,-0.476023,-0.462645,-0.464096,-0.465063,-0.47425,-0.524378,-0.451362,-0.441369,-0.497299,-0.457487,-0.493109,-0.479086,-0.477957,-0.486178,-0.461678,-0.507937,-0.452329,-0.507615,-0.465385,-0.45926,-0.453457,-0.469737,-0.468931,-0.480214,-0.492464,-0.460549,-0.493592,-0.502457,-0.442658,-0.494559,-0.465869,-0.472961,-0.49472,-0.456681,-0.464579,-0.506809,-0.460872,-0.468125,-0.461678,-0.511322,-0.484405,-0.450878,-0.50278,-0.449267,-0.473283,-0.501329,-0.443142,-0.500201,-0.49875,-0.456359,-0.509388,-0.495204,-0.464901,-0.452329,-0.48247,-0.459744,-0.475378,-0.477796,-0.443948,-0.50971,-0.463451,-0.455553,-0.47554,-0.49472,-0.498105,-0.486016,-0.491658,-0.48376,-0.468609,-0.445721,-0.486822,-0.461033,-0.448622,-0.476507,-0.50278,-0.499234,-0.442336,-0.501168,-0.479569,-0.49053,-0.446043,-0.457809,-0.450878,-0.455553,-0.449589,-0.472638,-0.452813,-0.449267,-0.455392,-0.486984,-0.43476,-0.504391,-0.486984,-0.430247,-0.450234,-0.49053,-0.485855,-0.440079,-0.495849,-0.455875,-0.451684,-0.489724,-0.443464,-0.476023,-0.473928,-0.48102,-0.456681,-0.504553,-0.456359,-0.44427,-0.480536,-0.448138,-0.440079,-0.476829,-0.472799,-0.437823,-0.439596,-0.485533,-0.443625,-0.481826,-0.447332,-0.453941,-0.434277,-0.466513,-0.461355,-0.460872,-0.466191,-0.423316,-0.433148,-0.419931,-0.466191,-0.465385,-0.433632,-0.467158,-0.447816,-0.459905,-0.462806,-0.464579,-0.474734,-0.470543,-0.435244,-0.426862,-0.413484,-0.428474,-0.432342,-0.486016,-0.432987,-0.424444,-0.438629,-0.467158,-0.470704,-0.443625,-0.434115,-0.465385,-0.44024,-0.453296,-0.479569,-0.471832,-0.478441,-0.444754,-0.4483,-0.447494,-0.498105,-0.450717,-0.454263,-0.498911,-0.464418,-0.45926,-0.499072,-0.454908,-0.475862,-0.461194,-0.470865,-0.457487,-0.497299,-0.526312,-0.502457,-0.525184,-0.473767,-0.470865,-0.515513,-0.532115,-0.516319,-0.509872,-0.528247,-0.502296,-0.484405,-0.501651,-0.498266,-0.546622,-0.512289,-0.527763,-0.534855,-0.555003,-0.541302,-0.503102,-0.517931,-0.557421,-0.546138,-0.553391,-0.52196,-0.514546,-0.53276,-0.496171,-0.516158,-0.525023,-0.522928,-0.51374,-0.503263,-0.501007,-0.524539,-0.516641,-0.511322,-0.532276,-0.514224,-0.545493,-0.527602,-0.531631,-0.556293,-0.531309,-0.552102,-0.507454,-0.523733,-0.548717,-0.530342,-0.504069,-0.546299,-0.500684,-0.559194,-0.520671,-0.504391,-0.519865,-0.549039,-0.542431,-0.536789,-0.509872,-0.508905,-0.525345,-0.504714,-0.542108,-0.506003,-0.504391,-0.534533,-0.503424,-0.490852,-0.505842,-0.515997,-0.500039,-0.5492,-0.555325,-0.546783,-0.509872,-0.555003,-0.514224,-0.550329,-0.524378,-0.508905,-0.515674,-0.510194,-0.534049,-0.532276,-0.541625,-0.543075,-0.547911,-0.507293,-0.509549,-0.519704,-0.552424,-0.504875,-0.502618,-0.541141,-0.538401,-0.501812,-0.51503,-0.507776,-0.515191,-0.543237,-0.498266,-0.55597,-0.541464,-0.539691,-0.556615,-0.54227,-0.521155,-0.527763,-0.502135,-0.516641,-0.511,-0.5492,-0.546622,-0.513095,-0.488918,-0.506164,-0.507132,-0.526635,-0.514385,-0.547589,-0.539046,-0.555003,-0.512612,-0.510033,-0.519381,-0.526635,-0.501974,-0.49327,-0.556937,-0.497944,-0.507132,-0.492947,-0.528569,-0.545816,-0.484243,-0.511967,-0.544204,-0.549684,-0.546622,-0.541786,-0.537595,-0.513901,-0.528408,-0.497299,-0.546299,-0.508905,-0.499072,-0.511483,-0.498428,-0.477474,-0.500039,-0.489401,-0.479569,-0.50552,-0.497461,-0.496171,-0.508582,-0.497461,-0.499072,-0.552263,-0.500201,-0.494237,-0.555164,-0.483921,-0.520993,-0.545654,-0.487306,-0.519381,-0.549523,-0.494237,-0.488595,-0.53695,-0.499072,-0.506003,-0.50826,-0.527441,-0.507937,-0.501812,-0.528247,-0.50552,-0.501168,-0.486178,-0.500845,-0.483438,-0.482309,-0.497783,-0.507454,-0.491819,-0.542108,-0.504391,-0.524701,-0.488112,-0.498105,-0.49875,-0.513579,-0.512612,-0.522605,-0.485533,-0.475217,-0.496493,-0.506164,-0.47973,-0.49198,-0.490368,-0.515191,-0.539368,-0.538562,-0.488273,-0.544204,-0.509549,-0.497138,-0.535822,-0.479408,-0.511483,-0.54775,-0.509872,-0.484243,-0.490207,-0.484566,-0.485049,-0.548072,-0.485694,-0.483599,-0.530664,-0.513579,-0.518092,-0.496493,-0.480053,-0.506809,-0.532437,-0.466352,-0.49053,-0.502941,-0.525506,-0.479247,-0.510516,-0.530664,-0.49053,-0.490046,-0.504553,-0.494237,-0.494237,-0.503263,-0.544043,-0.522283,-0.481987,-0.573539,-0.517447,-0.483276,-0.486016,-0.508099,-0.486661,-0.503747,-0.534049,-0.530181,-0.545654,-0.487628,-0.541464,-0.548717,-0.536306,-0.483276,-0.483276,-0.491497,-0.479247,-0.479569,-0.470704,-0.472155,-0.481987,-0.488434,-0.50552,-0.528408,-0.483599,-0.535016,-0.500362,-0.490207,-0.55597,-0.488434,-0.493592,-0.505359,-0.484243,-0.482954,-0.519865,-0.538562,-0.497461,-0.493753,-0.526312,-0.514224,-0.48779,-0.476184,-0.484727,-0.534049,-0.479086,-0.526957,-0.506487,-0.506326,-0.474089,-0.481503,-0.497944,-0.476345,-0.485049,-0.496493,-0.484405,-0.534049,-0.502618,-0.489079,-0.534855,-0.485372,-0.484082,-0.533082,-0.480375,-0.528569,-0.488273,-0.516319,-0.501329,-0.486984,-0.474572,-0.535822,-0.516803,-0.47699,-0.482954,-0.484243,-0.508582,-0.517931,-0.483276,-0.485694,-0.480536,-0.482793,-0.47973,-0.526957,-0.481181,-0.521155,-0.493431,-0.502296,-0.491013,-0.542592,-0.518092,-0.54098,-0.488112,-0.509549,-0.513901,-0.507454,-0.508421,-0.498428,-0.503908,-0.538079,-0.552102,-0.506164,-0.525184,-0.542108,-0.488112,-0.4865,-0.51777,-0.495688,-0.490852,-0.555164,-0.54372,-0.50149,-0.502296,-0.548556,-0.507776,-0.50697,-0.521477,-0.501329,-0.541947,-0.492464,-0.5355,-0.526151,-0.481987,-0.556776,-0.494237,-0.48924,-0.49601,-0.496655,-0.514062,-0.495043,-0.536306,-0.494076,-0.548878,-0.492303,-0.524378,-0.53824,-0.479086,-0.480859,-0.497138,-0.479247,-0.496977,-0.533727,-0.491174,-0.526957,-0.504714,-0.495204,-0.526635,-0.541464,-0.525668,-0.484082,-0.525023,-0.466836,-0.47151,-0.511483,-0.45926,-0.488918,-0.467158,-0.509549,-0.475862,-0.478924,-0.474411,-0.469253,-0.508099,-0.463934,-0.462323,-0.457971,-0.495849,-0.458615,-0.431536,-0.446204,-0.442013,-0.413162,-0.448461,-0.457003,-0.420415,-0.414612,-0.417352,-0.456681,-0.46329,-0.48376,-0.430569,-0.486178,-0.486822,-0.482954,-0.515997,-0.564191,-0.535983,-0.587401,-0.569671,-0.627052,-0.630115,-0.647361,-0.636401,-0.658483,-0.619154,-0.618348,-0.65268,-0.668476,-0.668315
 10:46:39.,-0.684595,-0.623828,-0.638174,-0.657355,-0.602552,-0.606259,-0.578697,-0.576279,-0.579987,-0.568704,-0.544848,-0.578375,-0.571283,-0.540497,-0.512289,-0.547105,-0.49472,-0.528247,-0.510355,-0.480536,-0.485855,-0.461839,-0.461033,-0.477474,-0.515835,-0.499717,-0.466191,-0.464579,-0.494237,-0.500201,-0.46603,-0.511645,-0.519059,-0.457003,-0.475378,-0.493914,-0.462484,-0.489724,-0.503263,-0.462161,-0.466352,-0.483276,-0.512451,-0.473605,-0.486661,-0.464096,-0.469253,-0.483599,-0.50423,-0.50971,-0.470543,-0.462806,-0.464257,-0.50826,-0.504391,-0.449911,-0.448138,-0.456359,-0.463612,-0.46474,-0.457003,-0.493592,-0.494882,-0.509066,-0.459744,-0.457003,-0.47425,-0.499395,-0.463773,-0.50971,-0.498589,-0.452652,-0.440079,-0.496816,-0.450395,-0.460549,-0.457971,-0.469415,-0.4865,-0.457809,-0.500362,-0.458615,-0.45249,-0.488273,-0.465546,-0.45926,-0.460388,-0.457809,-0.485855,-0.443786,-0.464257,-0.491819,-0.495365,-0.459421,-0.444915,-0.460066,-0.499556,-0.497299,-0.453457,-0.491174,-0.480053,-0.4865,-0.470865,-0.451201,-0.49053,-0.451362,-0.466674,-0.449589,-0.500684,-0.448461,-0.50697,-0.457165,-0.460066,-0.499878,-0.478118,-0.445882,-0.452329,-0.450234,-0.484082,-0.46474,-0.496816,-0.469898,-0.460711,-0.454747,-0.457971,-0.457326,-0.477313,-0.497461,-0.462645,-0.476668,-0.480375,-0.444754,-0.459744,-0.45523,-0.49875,-0.4483,-0.447332,-0.474572,-0.443303,-0.490046,-0.503747,-0.4483,-0.449428,-0.49198,-0.479892,-0.444592,-0.510516,-0.451523,-0.483921,-0.496493,-0.477796,-0.48924,-0.448622,-0.43476,-0.442658,-0.439918,-0.438306,-0.478118,-0.476829,-0.467964,-0.484082,-0.436694,-0.445076,-0.454747,-0.450878,-0.424122,-0.444592,-0.43605,-0.430408,-0.483438,-0.408165,-0.432342,-0.487628,-0.458776,-0.424444,-0.474734,-0.476184,-0.424767,-0.456198,-0.456359,-0.474895,-0.448461,-0.424283,-0.432342,-0.427829,-0.41977,-0.422833,-0.412839,-0.416869,-0.424444,-0.430086,-0.412356,-0.408487,-0.416546,-0.426379,-0.420737,-0.419448,-0.451523,-0.416546,-0.418642,-0.426862,-0.474089,-0.419287,-0.429763,-0.430247,-0.448783,-0.482793,-0.444109,-0.452813,-0.468286,-0.456198,-0.429763,-0.464257,-0.434277,-0.446849,-0.443786,-0.468286,-0.431859,-0.442336,-0.437984,-0.470865,-0.465224,-0.445398,-0.459905,-0.443948,-0.485372,-0.445721,-0.475862,-0.473283,-0.488918,-0.448622,-0.450556,-0.461839,-0.485049,-0.500684,-0.459905,-0.465546,-0.478441,-0.469898,-0.468931,-0.512934,-0.477635,-0.492786,-0.524056,-0.50423,-0.535177,-0.512289,-0.477957,-0.492947,-0.482793,-0.485049,-0.492625,-0.486661,-0.528408,-0.534049,-0.522122,-0.496655,-0.525668,-0.490368,-0.558066,-0.51374,-0.499072,-0.554036,-0.509066,-0.500523,-0.547589,-0.547589,-0.548717,-0.547266,-0.513095,-0.505842,-0.552585,-0.511,-0.510516,-0.518253,-0.55049,-0.517286,-0.533082,-0.515997,-0.566125,-0.512289,-0.499556,-0.524378,-0.505036,-0.518092,-0.554036,-0.502457,-0.518092,-0.54775,-0.534855,-0.541141,-0.514868,-0.529858,-0.572894,-0.510033,-0.539368,-0.509872,-0.534049,-0.531793,-0.515674,-0.49875,-0.524056,-0.541464,-0.509227,-0.522444,-0.506003,-0.514385,-0.514546,-0.550973,-0.513418,-0.541786,-0.537434,-0.548233,-0.553714,-0.564029,-0.522928,-0.569348,-0.505681,-0.544365,-0.516158,-0.539691,-0.511645,-0.505197,-0.493753,-0.530181,-0.512934,-0.547105,-0.505681,-0.549362,-0.509227,-0.56145,-0.512451,-0.508905,-0.56548,-0.538079,-0.54227,-0.516964,-0.530342,-0.506326,-0.540013,-0.531148,-0.514062,-0.510678,-0.502457,-0.564835,-0.521799,-0.561289,-0.555164,-0.548717,-0.516641,-0.511967,-0.543559,-0.498428,-0.550812,-0.521316,-0.507132,-0.500523,-0.495849,-0.523733,-0.512128,-0.518898,-0.513901,-0.519704,-0.517931,-0.50552,-0.508905,-0.534049,-0.550168,-0.509872,-0.511967,-0.512773,-0.491497,-0.54098,-0.546622,-0.526312,-0.518414,-0.513418,-0.522122,-0.508582,-0.508905,-0.505197,-0.511483,-0.556454,-0.499234,-0.551135,-0.502135,-0.473605,-0.545171,-0.491013,-0.50826,-0.50697,-0.49053,-0.499717,-0.517286,-0.517931,-0.495849,-0.540658,-0.528408,-0.532276,-0.5492,-0.53695,-0.509549,-0.515674,-0.478763,-0.495849,-0.542914,-0.527118,-0.497138,-0.537112,-0.497138,-0.499234,-0.505681,-0.527441,-0.498589,-0.529375,-0.524862,-0.50826,-0.511,-0.493753,-0.549684,-0.48924,-0.491658,-0.558227,-0.526312,-0.491497,-0.502618,-0.539368,-0.543881,-0.505359,-0.520671,-0.499234,-0.526796,-0.493592,-0.512289,-0.492947,-0.52051,-0.553552,-0.489401,-0.525829,-0.505681,-0.518414,-0.504714,-0.508743,-0.550329,-0.497622,-0.517931,-0.538562,-0.493914,-0.494237,-0.53147,-0.543398,-0.545493,-0.479569,-0.513579,-0.507132,-0.481665,-0.502941,-0.52873,-0.530664,-0.495849,-0.497783,-0.542753,-0.54098,-0.510033,-0.493592,-0.531793,-0.508743,-0.491336,-0.504391,-0.511483,-0.481826,-0.493753,-0.484243,-0.496493,-0.489079,-0.494559,-0.509227,-0.555487,-0.535661,-0.495043,-0.493914,-0.492141,-0.497299,-0.53824,-0.501007,-0.503102,-0.508582,-0.492625,-0.514062,-0.502135,-0.501168,-0.504875,-0.528085,-0.494237,-0.499395,-0.500039,-0.497461,-0.519704,-0.487951,-0.501651,-0.538885,-0.491658,-0.532921,-0.533566,-0.487628,-0.486822,-0.539368,-0.47828,-0.498105,-0.508743,-0.534694,-0.496655,-0.510678,-0.539852,-0.487467,-0.492625,-0.498266,-0.515352,-0.48247,-0.493592,-0.501007,-0.494882,-0.537595,-0.499556,-0.530342,-0.500523,-0.542753,-0.520671,-0.539852,-0.528247,-0.535177,-0.523089,-0.492303,-0.495849,-0.54501,-0.521638,-0.498105,-0.548878,-0.510516,-0.486339,-0.522928,-0.514546,-0.490368,-0.552746,-0.537756,-0.510355,-0.524378,-0.503263,-0.495849,-0.55597,-0.492625,-0.511161,-0.54098,-0.509388,-0.500039,-0.4865,-0.509549,-0.528408,-0.49875,-0.493914,-0.510194,-0.491174,-0.490368,-0.516319,-0.489563,-0.496816,-0.543398,-0.483921,-0.490852,-0.501812,-0.511483,-0.507776,-0.524056,-0.471832,-0.489885,-0.519059,-0.49198,-0.495204,-0.483599,-0.517608,-0.48102,-0.502457,-0.493431,-0.514385,-0.483115,-0.497622,-0.49472,-0.519059,-0.530826,-0.496171,-0.481826,-0.493431,-0.488757,-0.527924,-0.537595,-0.520187,-0.496493,-0.528247,-0.544204,-0.514546,-0.492786,-0.480859,-0.523733,-0.513901,-0.505681,-0.518092,-0.484888,-0.476829,-0.532115,-0.482148,-0.480053,-0.495365,-0.524539,-0.486178,-0.530826,-0.488918,-0.501651,-0.485855,-0.491336,-0.490691,-0.493109,-0.504714,-0.480214,-0.495043,-0.505197,-0.498911,-0.479569,-0.50826,-0.51503,-0.501007,-0.477151,-0.484405,-0.468447,-0.482632,-0.500039,-0.48376,-0.468447,-0.516641,-0.508099,-0.511645,-0.50149,-0.499072,-0.481987,-0.519704,-0.481826,-0.53002,-0.476184,-0.519704,-0.527441,-0.497461,-0.516158,-0.488273,-0.481665,-0.470543,-0.480697,-0.513257,-0.510839,-0.518898,-0.494076,-0.486822,-0.483599,-0.512289,-0.487306,-0.527763,-0.496977,-0.49198,-0.524217,-0.48924,-0.49327,-0.494237,-0.477313,-0.522766,-0.498105,-0.531631,-0.506809,-0.521155,-0.53824,-0.552424,-0.53147,-0.490852,-0.546783,-0.495688,-0.531148,-0.514062,-0.491174,-0.528085,-0.49875,-0.487306,-0.510839,-0.497944,-0.500523,-0.554036,-0.492947,-0.538724,-0.514062,-0.547911,-0.499072,-0.504875,-0.504553,-0.538885,-0.542914,-0.522283,-0.494882,-0.495688,-0.497622,-0.523089,-0.531309,-0.48779,-0.505036,-0.507615,-0.51922,-0.522766,-0.508905,-0.545977,-0.498911,-0.496493,-0.492625,-0.502296,-0.53824,-0.51648,-0.504069,-0.490852,-0.519059,-0.500845,-0.521638,-0.501168,-0.545171,-0.496655,-0.511483,-0.49327,-0.520671,-0.480859,-0.501329,-0.488273,-0.494398,-0.483115,-0.467319,-0.477474,-0.494398,-0.466836,-0.468609,-0.475862,-0.476023,-0.482632,-0.486661,-0.486016,-0.487306,-0.506003,-0.454102,-0.49053,-0.454425,-0.441207,-0.49472,-0.469576,-0.411066,-0.442175,-0.454908,-0.407842,-0.407842,-0.407037,-0.413967,-0.457971,-0.459582,-0.427829,-0.439757,-0.462806,-0.468447,-0.492141,-0.522283,-0.522766,-0.554197,-0.562417,-0.562579,-0.625118,-0.599651,-0.624957,-0.653809,-0.631726,-0.621088,-0.648167,-0.622378,-0.635111,-0.636562,-0.685401,-0.641559,-0.655259,-0.666864,-0.630115,-0.605776,-0.640269,-0.581437,-0.576602,-0.612062,-0.546783,-0.552746,-0.578858,-0.512289,-0.507776,-0.495688,-0.536789,-0.48376,-0.475701,-0.472638,-0.508905,-0.500845,-0.474572,-0.479569,-0.516641,-0.469898,-0.529858,-0.473122,-0.469898,-0.47699,-0.512934,-0.471671,-0.522444,-0.468931,-0.46474,-0.494398,-0.463934,-0.461033,-0.485533,-0.465707,-0.49601,-0.505197,-0.458938,-0.469253,-0.508099,-0.511161,-0.511161,-0.511161,-0.467964,-0.521799,-0.483115,-0.470221,-0.489885,-0.480053,-0.448461,-0.513095,-0.477474,-0.439273,-0.47973,-0.474089,-0.510194,-0.458615,-0.456681,-0.466836,-0.468125,-0.52051,-0.453941,-0.502618,-0.466997,-0.456842,-0.463451,-0.467803,-0.487951,-0.482954,-0.460388,-0.480859,-0.492625,-0.465385,-0.480053,-0.488918,-0.523572,-0.516964,-0.509549,-0.511483,-0.461194,-0.519704,-0.466836,-0.480375,-0.459099,-0.47425,-0.49327,-0.470221,-0.49875,-0.472638,-0.461839,-0.506164,-0.466674,-0.511967,-0.511483,-0.51374,-0.46329,-0.481987,-0.459099,-0.502135,-0.47828,-0.465707,-0.454425,-0.448622,-0.463612,-0.460711,-0.448783,-0.46748,-0.492947,-0.487628,-0.498911,-0.487306,-0.471349,-0.518092,-0.484405,-0.487306,-0.454747,-0.483276,-0.446365,-0.448138,-0.497783,-0.454586,-0.500684,-0.453457,-0.462967,-0.455553,-0.494882,-0.461033,-0.457487,-0.479408,-0.458454,-0.450717,-0.480375,-0.500039,-0.484082,-0.450073,-0.454747,-0.492141,-0.457003,-0.457326,-0.46877,-0.445398,-0.463934,-0.484082,-0.491497,-0.462967,-0.442497,-0.444754,-0.461033,-0.459421,-0.441852,-0.434277,-0.442013,-0.480859,-0.466836,-0.444592,-0.480053,-0.482309,-0.47554,-0.440724,-0.440563,-0.474411,-0.456036,-0.442658,-0.483438,-0.434921,-0.4375,-0.463128,-0.4483,-0.479569,-0.444592,-0.439112,-0.437339,-0.465869,-0.489079,-0.470865,-0.436533,-0.481342,-0.423477,-0.467803,-0.437017,-0.467803,-0.479247,-0.431375,-0.464096,-0.462161,-0.432826,-0.441046,-0.477474,-0.43202,-0.422994,-0.443625,-0.471832,-0.469092,-0.433309,-0.464096,-0.462645,-0.470543,-0.44427,-0.461517,-0.427023,-0.437017,-0.441046,-0.498105,-0.437339,-0.437339,-0.496332,-0.477313,-0.487145,-0.455069,-0.473767,-0.43476,-0.481342
 10:46:40.,-0.446365,-0.48779,-0.447977,-0.489079,-0.435082,-0.464579,-0.466191,-0.448461,-0.450234,-0.46603,-0.493592,-0.497783,-0.476829,-0.46603,-0.46474,-0.47425,-0.507615,-0.466997,-0.463612,-0.506003,-0.513901,-0.462323,-0.47151,-0.483276,-0.479892,-0.473444,-0.498911,-0.487628,-0.517125,-0.484727,-0.530987,-0.491336,-0.488434,-0.504069,-0.539368,-0.515997,-0.480214,-0.520187,-0.483599,-0.495526,-0.547911,-0.491658,-0.504069,-0.519704,-0.552585,-0.542914,-0.496816,-0.543398,-0.49053,-0.562417,-0.536628,-0.516641,-0.510033,-0.508905,-0.560644,-0.512289,-0.499072,-0.544043,-0.505359,-0.538562,-0.518414,-0.523411,-0.548878,-0.509227,-0.507132,-0.511322,-0.523572,-0.51648,-0.51648,-0.566608,-0.536467,-0.52051,-0.521316,-0.516158,-0.557098,-0.55452,-0.507293,-0.564352,-0.534694,-0.510194,-0.503424,-0.521799,-0.541464,-0.515513,-0.527602,-0.547105,-0.523411,-0.547911,-0.515835,-0.559677,-0.506326,-0.506648,-0.520026,-0.562256,-0.513901,-0.533404,-0.523733,-0.52196,-0.514224,-0.549362,-0.510839,-0.560483,-0.500845,-0.511483,-0.552746,-0.510194,-0.53824,-0.542753,-0.515352,-0.505036,-0.551618,-0.512934,-0.515674,-0.525345,-0.496816,-0.552424,-0.539529,-0.514385,-0.508582,-0.514546,-0.534533,-0.534372,-0.540174,-0.496493,-0.53276,-0.559033,-0.540497,-0.540174,-0.548072,-0.50552,-0.501651,-0.537756,-0.510194,-0.513257,-0.551135,-0.513901,-0.503102,-0.547911,-0.532437,-0.511,-0.547266,-0.508743,-0.501329,-0.504875,-0.534533,-0.554358,-0.550168,-0.509227,-0.532115,-0.502135,-0.505036,-0.506164,-0.538724,-0.484243,-0.540013,-0.546138,-0.516641,-0.512934,-0.517608,-0.497299,-0.516158,-0.525184,-0.5492,-0.504069,-0.496171,-0.510355,-0.515674,-0.534855,-0.490368,-0.496977,-0.506648,-0.496493,-0.494237,-0.478602,-0.509066,-0.501651,-0.492786,-0.551941,-0.544526,-0.534049,-0.543237,-0.521155,-0.50826,-0.543881,-0.550812,-0.488112,-0.509549,-0.491336,-0.518898,-0.507776,-0.488273,-0.535339,-0.534694,-0.544526,-0.532599,-0.51648,-0.549523,-0.542108,-0.516803,-0.504069,-0.500039,-0.509872,-0.489885,-0.495526,-0.517931,-0.512773,-0.535983,-0.500684,-0.526474,-0.530664,-0.498428,-0.513095,-0.544365,-0.538401,-0.507293,-0.546299,-0.548072,-0.490852,-0.494398,-0.495526,-0.488918,-0.536789,-0.489079,-0.485049,-0.534694,-0.50697,-0.537434,-0.54372,-0.539852,-0.492141,-0.520671,-0.559355,-0.50149,-0.557743,-0.499072,-0.498428,-0.531954,-0.528085,-0.503102,-0.491819,-0.486016,-0.48779,-0.545816,-0.509066,-0.500523,-0.507454,-0.546299,-0.502296,-0.544526,-0.535983,-0.498266,-0.544043,-0.523733,-0.52325,-0.540335,-0.530181,-0.5355,-0.504875,-0.49327,-0.494076,-0.549362,-0.497944,-0.493914,-0.500362,-0.545332,-0.511322,-0.498428,-0.493914,-0.497299,-0.513418,-0.512612,-0.497461,-0.54646,-0.486984,-0.521155,-0.533243,-0.540335,-0.545977,-0.498266,-0.50423,-0.514707,-0.522122,-0.508905,-0.508582,-0.507132,-0.513579,-0.487145,-0.512934,-0.481987,-0.515997,-0.519059,-0.526957,-0.522605,-0.494559,-0.516641,-0.492625,-0.502296,-0.508099,-0.489079,-0.544526,-0.497299,-0.502941,-0.50826,-0.489563,-0.499395,-0.534372,-0.495688,-0.496493,-0.495204,-0.503747,-0.528408,-0.525345,-0.543881,-0.498589,-0.510194,-0.52873,-0.502941,-0.500201,-0.538724,-0.494882,-0.491013,-0.526312,-0.481987,-0.555164,-0.499717,-0.507293,-0.520026,-0.489885,-0.505842,-0.493109,-0.540497,-0.500684,-0.50149,-0.528891,-0.512289,-0.540819,-0.496171,-0.481826,-0.542592,-0.541625,-0.534533,-0.510516,-0.534694,-0.495688,-0.508421,-0.528247,-0.515191,-0.540658,-0.534855,-0.517286,-0.501168,-0.546138,-0.541464,-0.535339,-0.517286,-0.491013,-0.502941,-0.481181,-0.495204,-0.54227,-0.48924,-0.511645,-0.546783,-0.488757,-0.487628,-0.497783,-0.509388,-0.533727,-0.501974,-0.500845,-0.487145,-0.493753,-0.515513,-0.500039,-0.493109,-0.528247,-0.497138,-0.52599,-0.498589,-0.542753,-0.505036,-0.489885,-0.511322,-0.536145,-0.492947,-0.501651,-0.530826,-0.488595,-0.505036,-0.495688,-0.526635,-0.49327,-0.491819,-0.495365,-0.491013,-0.538724,-0.481826,-0.499878,-0.518253,-0.527924,-0.526635,-0.528408,-0.490852,-0.500362,-0.542431,-0.535177,-0.52196,-0.490368,-0.510678,-0.500523,-0.491497,-0.530987,-0.496171,-0.532276,-0.497622,-0.521477,-0.535822,-0.531309,-0.47973,-0.498911,-0.486661,-0.520671,-0.500039,-0.492141,-0.529214,-0.527763,-0.486178,-0.527279,-0.508421,-0.513418,-0.480859,-0.477474,-0.486178,-0.520671,-0.541625,-0.527441,-0.51777,-0.541625,-0.471188,-0.492303,-0.539529,-0.476184,-0.492947,-0.490852,-0.522283,-0.479892,-0.538079,-0.502457,-0.483599,-0.52873,-0.509872,-0.522283,-0.537112,-0.499395,-0.493914,-0.481181,-0.485855,-0.479892,-0.479569,-0.513257,-0.506326,-0.53276,-0.511161,-0.477151,-0.46329,-0.506648,-0.525506,-0.496655,-0.458938,-0.532115,-0.476668,-0.50423,-0.472638,-0.492303,-0.476184,-0.484405,-0.540819,-0.494882,-0.50971,-0.48779,-0.484566,-0.478441,-0.4865,-0.479569,-0.481342,-0.488757,-0.494237,-0.530503,-0.536789,-0.482309,-0.484082,-0.540819,-0.485533,-0.493914,-0.525668,-0.531793,-0.492141,-0.532921,-0.495526,-0.497622,-0.544204,-0.540174,-0.522766,-0.500684,-0.520187,-0.495365,-0.539207,-0.527924,-0.524056,-0.540497,-0.494076,-0.500201,-0.516158,-0.533727,-0.539691,-0.49053,-0.525506,-0.533888,-0.554197,-0.476829,-0.504069,-0.537918,-0.49053,-0.499878,-0.491658,-0.494237,-0.499717,-0.520349,-0.533566,-0.534372,-0.491497,-0.497944,-0.490368,-0.517286,-0.498105,-0.501168,-0.495204,-0.520832,-0.512612,-0.512934,-0.537918,-0.546299,-0.504391,-0.539046,-0.540497,-0.49875,-0.539368,-0.496977,-0.506809,-0.528569,-0.49875,-0.533243,-0.518737,-0.498105,-0.495043,-0.485372,-0.493914,-0.491497,-0.481181,-0.472638,-0.49198,-0.484243,-0.466513,-0.463773,-0.47973,-0.508421,-0.520187,-0.494882,-0.496332,-0.478602,-0.45104,-0.458293,-0.457487,-0.437339,-0.481503,-0.462323,-0.40881,-0.462806,-0.405747,-0.419287,-0.390596,-0.432504,-0.40075,-0.409132,-0.431214,-0.428474,-0.490368,-0.516158,-0.514062,-0.513579,-0.598361,-0.557098,-0.640914,-0.628664,-0.622217,-0.650101,-0.685239,-0.661707,-0.70442,-0.666703,-0.700068,-0.662351,-0.677664,-0.641397,-0.657355,-0.662351,-0.643009,-0.643815,-0.68121,-0.640269,-0.608355,-0.612384,-0.595944,-0.566769,-0.588368,-0.576763,-0.575796,-0.512289,-0.50697,-0.500039,-0.493431,-0.526796,-0.545977,-0.488273,-0.476829,-0.483276,-0.530664,-0.485694,-0.475378,-0.497622,-0.505197,-0.473605,-0.532115,-0.475056,-0.526796,-0.477796,-0.526796,-0.476829,-0.533404,-0.514546,-0.490691,-0.485533,-0.460388,-0.523411,-0.519381,-0.510355,-0.465063,-0.511645,-0.468931,-0.485211,-0.488757,-0.501812,-0.461678,-0.477474,-0.48924,-0.456359,-0.478924,-0.493592,-0.464579,-0.499556,-0.461839,-0.50971,-0.508905,-0.501974,-0.503747,-0.48376,-0.462967,-0.461355,-0.506487,-0.460711,-0.47554,-0.476829,-0.449911,-0.465385,-0.492947,-0.479086,-0.494237,-0.501812,-0.465224,-0.481826,-0.465869,-0.486339,-0.470059,-0.462,-0.450878,-0.451201,-0.46603,-0.486339,-0.472799,-0.453135,-0.453619,-0.481826,-0.501329,-0.49053,-0.487628,-0.474895,-0.463128,-0.445721,-0.454425,-0.44975,-0.467158,-0.495043,-0.454263,-0.446527,-0.4483,-0.447332,-0.482954,-0.447816,-0.443786,-0.490691,-0.474089,-0.437339,-0.480214,-0.457326,-0.472799,-0.454908,-0.490368,-0.451846,-0.468447,-0.478924,-0.439596,-0.478763,-0.459905,-0.460227,-0.473122,-0.486339,-0.452329,-0.466836,-0.443625,-0.454747,-0.450395,-0.456681,-0.461033,-0.497783,-0.486178,-0.453619,-0.503424,-0.479086,-0.429763,-0.450073,-0.492947,-0.44024,-0.44975,-0.444915,-0.460227,-0.47973,-0.480214,-0.465546,-0.458615,-0.477957,-0.451201,-0.458776,-0.479247,-0.45249,-0.437823,-0.440079,-0.44701,-0.43879,-0.427829,-0.487467,-0.444431,-0.481826,-0.471188,-0.437823,-0.481665,-0.436533,-0.458615,-0.438951,-0.487306,-0.445398,-0.462323,-0.44701,-0.447171,-0.46329,-0.443142,-0.423477,-0.449105,-0.462484,-0.439757,-0.437339,-0.477957,-0.468609,-0.465869,-0.490691,-0.465385,-0.454747,-0.426862,-0.416063,-0.430408,-0.450395,-0.420415,-0.423638,-0.427507,-0.430408,-0.433632,-0.442497,-0.439434,-0.472155,-0.443786,-0.428635,-0.43476,-0.438951,-0.416063,-0.421543,-0.435888,-0.416063,-0.480536,-0.467642,-0.430086,-0.425573,-0.460227,-0.444592,-0.477474,-0.474895,-0.468125,-0.42928,-0.441852,-0.451846,-0.443464,-0.433954,-0.414773,-0.457487,-0.424928,-0.4375,-0.469898,-0.431859,-0.461355,-0.442497,-0.452007,-0.48924,-0.45652,-0.442658,-0.475056,-0.470704,-0.492464,-0.464418,-0.446688,-0.487145,-0.449911,-0.461839,-0.461194,-0.444592,-0.468447,-0.515674,-0.494076,-0.498105,-0.510033,-0.500039,-0.500362,-0.506809,-0.461839,-0.486016,-0.472477,-0.491819,-0.50278,-0.48247,-0.460711,-0.471188,-0.523411,-0.514062,-0.531793,-0.489563,-0.483276,-0.525829,-0.500523,-0.481181,-0.505681,-0.497461,-0.477474,-0.530987,-0.480859,-0.515352,-0.494076,-0.528891,-0.51648,-0.49601,-0.499878,-0.491497,-0.532599,-0.499717,-0.494237,-0.533727,-0.519543,-0.538885,-0.500684,-0.486178,-0.48779,-0.500201,-0.49198,-0.497944,-0.490368,-0.505681,-0.492625,-0.548878,-0.498589,-0.512773,-0.538724,-0.549039,-0.531309,-0.532437,-0.546138,-0.533888,-0.522928,-0.473928,-0.514546,-0.540658,-0.509549,-0.541464,-0.553391,-0.549523,-0.492947,-0.504875,-0.544043,-0.504069,-0.542753,-0.537112,-0.494559,-0.49875,-0.488273,-0.506487,-0.497783,-0.502135,-0.497138,-0.543398,-0.528408,-0.491013,-0.518737,-0.521638,-0.490691,-0.507293,-0.540497,-0.545493,-0.536628,-0.529052,-0.490852,-0.544848,-0.493753,-0.489563,-0.490046,-0.523089,-0.503102,-0.500684,-0.522122,-0.506809,-0.494559,-0.527279,-0.503908,-0.515352,-0.50552,-0.536789,-0.534533,-0.506164,-0.498589,-0.494882,-0.491819,-0.487467,-0.500845,-0.526312,-0.557743,-0.540013,-0.503424,-0.510033,-0.515513,-0.522283,-0.539852,-0.523411,-0.52051,-0.506326,-0.553069,-0.492786,-0.540335,-0.540819,-0.509227,-0.490691,-0.493753,-0.541947,-0.531148,-0.50278,-0.49198,-0.532115,-0.498428,-0.490046,-0.492464,-0.535177,-0.501651,-0.527763,-0.537756,-0.52051,-0.488112,-0.528891,-0.526796,-0.48924,-0.498428,-0.488918,-0.517608,-0.49601,-0.486339,-0.54372,-0.525829,-0.533888
 10:46:41.,-0.525668,-0.51922,-0.524701,-0.477957,-0.532599,-0.495365,-0.511806,-0.507293,-0.512451,-0.49198,-0.541625,-0.513579,-0.481987,-0.48924,-0.54098,-0.53276,-0.526474,-0.49875,-0.472799,-0.484566,-0.55323,-0.519704,-0.491497,-0.486178,-0.520993,-0.540658,-0.523733,-0.480053,-0.481826,-0.509549,-0.502457,-0.50149,-0.528247,-0.47554,-0.502941,-0.486339,-0.484082,-0.486822,-0.478602,-0.5355,-0.521155,-0.536789,-0.518898,-0.491497,-0.499717,-0.529697,-0.529697,-0.540497,-0.534694,-0.522766,-0.52873,-0.466513,-0.536467,-0.47828,-0.465546,-0.489563,-0.491336,-0.540013,-0.525184,-0.536145,-0.489724,-0.521799,-0.510355,-0.501168,-0.490691,-0.489563,-0.48102,-0.521155,-0.487467,-0.536628,-0.510033,-0.520671,-0.520187,-0.481181,-0.537756,-0.491658,-0.510033,-0.480536,-0.519865,-0.52599,-0.488273,-0.518576,-0.484243,-0.525345,-0.526635,-0.494076,-0.534049,-0.476184,-0.467803,-0.536628,-0.483921,-0.536467,-0.505359,-0.50697,-0.501007,-0.535177,-0.538562,-0.53421,-0.493431,-0.532437,-0.480053,-0.553552,-0.499395,-0.525829,-0.484082,-0.522928,-0.522605,-0.474572,-0.502135,-0.484082,-0.47973,-0.482632,-0.530181,-0.49472,-0.525345,-0.481342,-0.479408,-0.490368,-0.48376,-0.484566,-0.480214,-0.47554,-0.464257,-0.486984,-0.517447,-0.477474,-0.518253,-0.493109,-0.537273,-0.484082,-0.494076,-0.470059,-0.483921,-0.539691,-0.488112,-0.502296,-0.524217,-0.509066,-0.504069,-0.493109,-0.481987,-0.500845,-0.499072,-0.502457,-0.496493,-0.525184,-0.518737,-0.497944,-0.480697,-0.481826,-0.474572,-0.482148,-0.476023,-0.485533,-0.475217,-0.470382,-0.525668,-0.490691,-0.48376,-0.511161,-0.487467,-0.498105,-0.483276,-0.492464,-0.522122,-0.493753,-0.534372,-0.495365,-0.491174,-0.477313,-0.477313,-0.474895,-0.53695,-0.536628,-0.523572,-0.52873,-0.526635,-0.519381,-0.482309,-0.54372,-0.522444,-0.508582,-0.533566,-0.480859,-0.537434,-0.507776,-0.515997,-0.525829,-0.473767,-0.464901,-0.494398,-0.481181,-0.522766,-0.513901,-0.526635,-0.509549,-0.492786,-0.540497,-0.480697,-0.479892,-0.513257,-0.506648,-0.487145,-0.495688,-0.520187,-0.495043,-0.544687,-0.520671,-0.498589,-0.53421,-0.480214,-0.48102,-0.496816,-0.47973,-0.482309,-0.489885,-0.499717,-0.536628,-0.481181,-0.516803,-0.524862,-0.478763,-0.521638,-0.501974,-0.520832,-0.480536,-0.485372,-0.518737,-0.464579,-0.493431,-0.518092,-0.511,-0.486178,-0.487628,-0.477151,-0.52325,-0.507132,-0.495849,-0.484405,-0.524862,-0.513418,-0.466997,-0.475217,-0.47699,-0.516803,-0.528891,-0.514062,-0.511645,-0.526151,-0.478602,-0.464418,-0.481503,-0.460388,-0.457809,-0.492786,-0.466674,-0.512612,-0.470221,-0.451362,-0.498105,-0.510194,-0.476668,-0.503102,-0.492141,-0.464579,-0.497783,-0.468609,-0.460711,-0.458454,-0.466997,-0.505036,-0.453296,-0.512128,-0.513579,-0.466191,-0.476184,-0.470382,-0.514062,-0.468447,-0.471188,-0.511645,-0.483438,-0.470704,-0.469253,-0.479408,-0.486016,-0.472961,-0.460388,-0.487467,-0.48924,-0.476023,-0.481665,-0.474734,-0.477796,-0.526151,-0.492947,-0.489563,-0.496171,-0.513418,-0.484243,-0.500523,-0.525023,-0.52196,-0.535822,-0.485533,-0.502135,-0.538079,-0.476184,-0.496816,-0.532276,-0.486661,-0.531309,-0.511806,-0.537595,-0.49472,-0.49053,-0.500039,-0.490852,-0.550651,-0.487306,-0.474734,-0.486822,-0.488757,-0.539046,-0.482309,-0.509388,-0.526474,-0.519059,-0.506003,-0.516641,-0.493431,-0.541947,-0.481181,-0.53276,-0.487628,-0.492464,-0.477151,-0.48102,-0.483599,-0.529536,-0.509872,-0.480697,-0.485049,-0.53276,-0.522766,-0.492303,-0.536467,-0.537595,-0.501974,-0.492625,-0.492786,-0.521155,-0.503263,-0.526957,-0.471671,-0.49198,-0.494559,-0.474895,-0.474734,-0.516964,-0.492947,-0.47425,-0.489885,-0.496493,-0.49198,-0.479086,-0.459099,-0.450556,-0.456681,-0.450395,-0.439273,-0.439434,-0.474734,-0.428474,-0.44153,-0.419609,-0.411227,-0.465707,-0.403007,-0.412517,-0.431053,-0.38705,-0.426701,-0.431698,-0.39801,-0.408487,-0.459905,-0.419448,-0.420415,-0.463773,-0.496171,-0.507454,-0.591269,-0.566447,-0.620121,-0.674762,-0.691203,-0.711351,-0.672828,-0.69217,-0.740364,-0.709095,-0.699424,-0.701519,-0.729081,-0.736979,-0.676535,-0.695555,-0.687335,-0.691203,-0.677825,-0.714252,-0.655904,-0.650907,-0.666059,-0.633983,-0.611901,-0.602391,-0.533727,-0.556293,-0.506809,-0.539852,-0.502941,-0.542592,-0.527441,-0.469576,-0.548395,-0.512612,-0.495688,-0.482793,-0.531631,-0.52196,-0.476345,-0.522928,-0.480697,-0.463612,-0.482954,-0.490046,-0.500362,-0.480214,-0.461678,-0.507293,-0.505197,-0.493431,-0.466674,-0.46603,-0.461839,-0.500845,-0.470704,-0.466513,-0.45249,-0.496655,-0.456359,-0.45926,-0.440885,-0.439918,-0.459744,-0.49472,-0.490368,-0.471349,-0.501329,-0.469898,-0.456198,-0.462484,-0.495688,-0.495688,-0.494076,-0.485372,-0.447655,-0.441207,-0.459582,-0.473605,-0.479408,-0.444592,-0.437661,-0.503102,-0.497138,-0.490691,-0.468286,-0.490046,-0.480053,-0.45249,-0.452007,-0.445237,-0.483438,-0.466674,-0.431053,-0.480536,-0.49198,-0.413162,-0.478763,-0.452007,-0.477151,-0.464418,-0.47554,-0.457165,-0.449105,-0.450717,-0.484727,-0.469737,-0.490852,-0.42928,-0.438951,-0.44701,-0.428474,-0.443948,-0.434277,-0.421543,-0.485049,-0.452974,-0.443142,-0.442336,-0.443142,-0.478602,-0.448461,-0.498428,-0.476829,-0.443948,-0.485533,-0.430731,-0.443625,-0.417836,-0.469898,-0.467319,-0.434115,-0.433793,-0.434599,-0.442497,-0.45926,-0.479086,-0.488273,-0.437984,-0.484243,-0.445559,-0.469898,-0.477313,-0.47973,-0.433471,-0.428313,-0.491013,-0.431375,-0.469576,-0.450717,-0.441207,-0.478441,-0.442497,-0.438467,-0.485049,-0.485372,-0.446204,-0.468125,-0.470221,-0.470382,-0.414612,-0.481826,-0.460066,-0.422188,-0.42799,-0.467642,-0.454425,-0.434921,-0.446849,-0.47151,-0.488112,-0.44153,-0.483438,-0.462,-0.435244,-0.416063,-0.444109,-0.45378,-0.461194,-0.417836,-0.427507,-0.429763,-0.432987,-0.433954,-0.421382,-0.438629,-0.424767,-0.4375,-0.480214,-0.415579,-0.449105,-0.466674,-0.458293,-0.448944,-0.453941,-0.414935,-0.440402,-0.460227,-0.418642,-0.436211,-0.41574,-0.453296,-0.420415,-0.463773,-0.431375,-0.450395,-0.413484,-0.408004,-0.45523,-0.462161,-0.397043,-0.40881,-0.416224,-0.402846,-0.406069,-0.447655,-0.456198,-0.460388,-0.409454,-0.408648,-0.427185,-0.462323,-0.456198,-0.455714,-0.458776,-0.418964,-0.419287,-0.43605,-0.404941,-0.409938,-0.474895,-0.445559,-0.410099,-0.422994,-0.460066,-0.469737,-0.425734,-0.434277,-0.434921,-0.432504,-0.450556,-0.433148,-0.485533,-0.454263,-0.431698,-0.443142,-0.458938,-0.443948,-0.440402,-0.473444,-0.454263,-0.494559,-0.453457,-0.455553,-0.470221,-0.491336,-0.461678,-0.513901,-0.498911,-0.467158,-0.467158,-0.492786,-0.462645,-0.515997,-0.469898,-0.492303,-0.479086,-0.516319,-0.480859,-0.535822,-0.495688,-0.487145,-0.523733,-0.479408,-0.537112,-0.485533,-0.510678,-0.54098,-0.487145,-0.472155,-0.493109,-0.498589,-0.531631,-0.535339,-0.534533,-0.49327,-0.510355,-0.543559,-0.494237,-0.503424,-0.529375,-0.549039,-0.553552,-0.526796,-0.494237,-0.517931,-0.496655,-0.495849,-0.506648,-0.507293,-0.543237,-0.546138,-0.513901,-0.553552,-0.544687,-0.502457,-0.50423,-0.524217,-0.547427,-0.503102,-0.537595,-0.510516,-0.529536,-0.50826,-0.540497,-0.505842,-0.510839,-0.540174,-0.525829,-0.525668,-0.507132,-0.532115,-0.506648,-0.527441,-0.50552,-0.504069,-0.508582,-0.494076,-0.50971,-0.527118,-0.555809,-0.500039,-0.497783,-0.514224,-0.512289,-0.499395,-0.509066,-0.533566,-0.531631,-0.50278,-0.493914,-0.551135,-0.511322,-0.527602,-0.501651,-0.510033,-0.4865,-0.503747,-0.555487,-0.497461,-0.542592,-0.519543,-0.515513,-0.556937,-0.510194,-0.507776,-0.544526,-0.511645,-0.499717,-0.534372,-0.558549,-0.492947,-0.549845,-0.538079,-0.537918,-0.563546,-0.488757,-0.544526,-0.550329,-0.537273,-0.547266,-0.516319,-0.49198,-0.539207,-0.509388,-0.490046,-0.498911,-0.49472,-0.48924,-0.510355,-0.508582,-0.495526,-0.551779,-0.541786,-0.495043,-0.502457,-0.539691,-0.50278,-0.534372,-0.533082,-0.501329,-0.527118,-0.538724,-0.507293,-0.492303,-0.484405,-0.522283,-0.492786,-0.485372,-0.550168,-0.517608,-0.514385,-0.500362,-0.537918,-0.496493,-0.502941,-0.499234,-0.494237,-0.518576,-0.499395,-0.509388,-0.492141,-0.531793,-0.50149,-0.543075,-0.488918,-0.486339,-0.526796,-0.494398,-0.506326,-0.496655,-0.497622,-0.494882,-0.549845,-0.532115,-0.496655,-0.502941,-0.524056,-0.480053,-0.495365,-0.533404,-0.536789,-0.496977,-0.494882,-0.493592,-0.536789,-0.539691,-0.545332,-0.488918,-0.49601,-0.495849,-0.507293,-0.524217,-0.498911,-0.515191,-0.477474,-0.490207,-0.496171,-0.489079,-0.504875,-0.486661,-0.53147,-0.494076,-0.493914,-0.548395,-0.535339,-0.534855,-0.49875,-0.501007,-0.516158,-0.478118,-0.496977,-0.46877,-0.504714,-0.536145,-0.50552,-0.491174,-0.493914,-0.531148,-0.486339,-0.545332,-0.495526,-0.493109,-0.49198,-0.489563,-0.520187,-0.535016,-0.485694,-0.555487,-0.483599,-0.532599,-0.489885,-0.489885,-0.516803,-0.552585,-0.492786,-0.507454,-0.550006,-0.536306,-0.539529,-0.508743,-0.49472,-0.504553,-0.504069,-0.474089,-0.49327,-0.537434,-0.474411,-0.497944,-0.545493,-0.53147,-0.532276,-0.495688,-0.499234,-0.537595,-0.539368,-0.535177,-0.499072,-0.512612,-0.520993,-0.529052,-0.485049,-0.52599,-0.558549,-0.487628,-0.500845,-0.497299,-0.536145,-0.500201,-0.52599,-0.493431,-0.537273,-0.500845,-0.494076,-0.499072,-0.498105,-0.527763,-0.501007,-0.498428,-0.466191,-0.551779,-0.484566,-0.535822,-0.499395,-0.511322,-0.515674,-0.55049,-0.531954,-0.511322,-0.502296,-0.525184,-0.480697,-0.512128,-0.532437,-0.522122,-0.552102,-0.478602,-0.487628,-0.529697,-0.534533,-0.502457,-0.48924,-0.49327,-0.548233,-0.522122,-0.539207,-0.491819,-0.514062,-0.488112,-0.534372,-0.503102,-0.480375,-0.54098,-0.474572,-0.479247,-0.491336,-0.484888,-0.498105,-0.52325,-0.508743,-0.496332,-0.525184,-0.500039,-0.498911,-0.496816,-0.492625,-0.526312,-0.533727,-0.511161,-0.502457,-0.52051,-0.472961,-0.492141,-0.510839,-0.527441,-0.54775,-0.492303,-0.494076,-0.503102,-0.542753,-0.496493,-0.545493,-0.496493,-0.484566,-0.489724,-0.511,-0.480536,-0.498589,-0.509227,-0.487145,-0.494882,-0.492464,-0.485694,-0.517608,-0.491336,-0.536145,-0.502618
